938
938
938
938
938
938
938
938
934
932
931
932
932
935
935
933
930
930
931
929
928
928
930
931
930
932
935
933
931
932
930
931
929
928
932
934
935
936
937
938
936
935
934
936
935
931
935
937
938
938
939
939
939
940
936
934
936
936
937
940
941
941
942
944
943
941
941
939
939
939
942
942
944
946
946
945
945
945
943
942
943
943
944
945
947
950
951
953
951
953
953
952
952
952
955
958
959
962
962
964
961
960
959
958
956
953
954
953
953
953
953
952
950
946
946
943
941
940
940
939
941
940
940
942
941
939
937
936
936
936
935
937
935
937
940
937
935
935
934
932
933
932
934
933
935
936
936
937
935
933
932
932
930
929
929
930
932
934
931
935
934
934
931
931
930
929
932
933
937
939
943
944
944
942
941
942
941
942
945
947
951
955
953
950
947
942
937
938
937
934
938
938
937
937
938
934
933
930
926
921
920
920
921
920
922
923
926
926
924
925
923
919
923
922
924
924
922
919
914
913
915
924
940
961
991
1024
1068
1110
1148
1171
1168
1138
1088
1027
974
938
921
922
934
945
952
958
955
950
940
936
930
928
927
928
931
929
931
930
930
930
931
929
928
927
926
928
927
929
931
932
933
933
932
932
930
929
930
930
930
931
930
932
933
933
931
931
928
928
926
929
931
933
933
935
934
936
936
936
935
933
933
933
933
936
936
939
940
941
940
939
936
935
935
932
934
936
939
943
942
941
941
943
939
940
941
944
948
950
952
953
955
956
956
956
955
956
954
954
954
955
955
959
958
957
956
952
948
947
943
942
944
941
943
942
943
942
941
942
940
937
936
934
933
934
935
936
936
937
936
935
935
933
931
932
932
934
935
936
934
936
936
935
934
933
931
932
932
931
933
932
932
934
932
930
928
927
928
927
926
928
930
931
930
931
931
930
931
930
930
931
934
936
938
941
942
943
942
943
943
944
944
946
947
947
945
942
941
938
938
937
935
933
934
933
935
936
934
935
930
926
924
920
918
918
918
918
919
921
922
924
924
924
923
922
922
921
919
918
914
910
909
912
923
942
969
1002
1043
1085
1131
1168
1185
1174
1137
1081
1022
972
939
924
926
934
941
944
947
946
944
940
935
931
930
927
924
924
922
925
928
928
929
927
928
930
929
925
923
923
921
922
924
927
927
930
929
929
928
927
927
927
926
925
926
927
930
931
930
933
933
932
930
931
929
929
927
928
929
933
936
937
939
937
937
934
933
932
933
932
933
933
934
937
938
937
937
935
935
934
935
936
937
936
937
940
939
937
938
937
939
942
947
949
952
955
956
956
954
955
952
951
950
947
948
951
950
951
950
949
946
944
941
940
939
938
938
937
939
940
938
935
935
934
934
933
931
931
933
932
933
936
934
936
935
932
932
929
930
928
929
930
931
932
932
932
930
930
928
924
922
920
922
926
928
931
931
931
931
926
926
924
925
926
927
928
929
930
928
929
928
925
926
923
926
926
930
931
933
934
935
936
938
937
938
941
941
940
942
940
938
938
936
937
933
935
935
931
929
926
926
925
926
927
926
924
924
921
920
917
916
915
916
918
917
918
920
921
923
920
919
918
916
916
914
912
909
908
913
928
952
981
1018
1063
1112
1154
1184
1188
1162
1110
1045
981
935
913
908
918
927
935
938
940
939
938
935
932
929
927
924
923
922
921
920
922
923
924
925
925
925
924
923
922
923
921
919
921
922
922
924
926
924
924
925
922
924
923
925
925
925
927
929
929
929
928
930
928
927
928
925
925
929
930
930
933
932
933
933
930
929
929
930
930
931
933
933
931
934
932
930
930
929
929
930
930
933
933
936
937
938
937
938
939
939
939
941
944
948
948
950
951
950
949
949
947
947
945
943
945
944
945
944
943
942
941
939
934
934
932
931
934
934
934
933
934
935
932
930
930
929
930
929
931
931
933
933
931
933
931
932
928
925
928
927
929
929
931
930
930
931
928
927
926
923
924
924
926
928
928
927
929
929
925
927
923
925
923
925
924
926
928
929
931
932
932
932
933
933
933
935
936
938
940
941
944
946
949
949
947
942
939
936
935
937
936
937
937
936
935
934
932
928
927
925
923
923
921
920
920
922
921
919
920
919
918
919
921
921
924
922
922
923
923
921
918
913
909
905
907
919
936
960
990
1025
1067
1105
1142
1167
1169
1149
1108
1054
1001
956
930
921
925
934
942
946
947
947
946
942
939
938
935
933
932
930
927
929
927
926
927
928
930
929
930
931
929
930
926
928
926
928
929
931
932
931
934
933
932
931
930
929
930
931
933
934
935
936
937
936
934
933
931
930
932
934
937
939
940
939
939
939
938
936
937
936
936
938
940
940
943
944
943
942
941
940
939
939
940
939
941
943
945
944
944
943
943
943
942
942
944
947
951
953
954
956
959
958
958
956
956
956
957
957
956
957
958
957
956
954
952
950
947
944
945
945
945
945
944
943
943
941
941
937
937
936
936
937
938
938
938
938
939
937
937
934
935
932
933
932
936
935
939
937
938
936
934
934
932
932
931
932
934
934
934
934
934
934
933
932
929
927
926
929
931
933
933
935
936
935
936
936
935
937
939
940
944
946
945
947
947
947
946
946
947
949
951
949
947
946
943
943
943
941
940
939
939
936
935
936
934
937
934
933
930
927
924
921
919
919
921
923
923
924
928
927
926
926
925
924
924
924
925
923
922
918
917
916
921
932
948
973
1005
1042
1083
1126
1161
1177
1167
1130
1078
1022
971
938
923
926
934
945
951
956
956
952
950
944
939
935
933
932
932
932
932
934
933
934
934
931
931
930
929
927
929
930
932
933
935
935
934
935
933
933
933
931
933
933
935
937
937
938
938
939
935
936
936
934
936
935
937
937
939
940
940
939
938
939
937
937
940
939
942
942
944
944
946
945
943
942
942
940
941
943
946
947
946
947
948
947
946
945
943
944
946
946
948
952
954
957
958
957
958
956
958
959
960
962
964
965
967
967
966
964
962
959
955
955
955
953
956
953
953
951
952
949
949
947
943
942
941
943
943
944
946
946
945
944
943
939
940
939
938
939
940
942
941
940
942
942
941
939
937
937
936
935
938
939
940
940
939
940
937
936
935
933
933
934
937
934
935
936
936
935
935
933
934
933
931
934
935
940
943
944
944
946
946
945
946
946
945
946
950
951
955
957
958
955
953
949
944
942
942
944
943
944
944
943
943
942
939
936
932
929
927
926
927
926
930
928
928
928
926
925
925
924
924
926
925
927
929
927
926
921
918
913
921
937
961
996
1039
1086
1134
1166
1173
1151
1101
1042
986
945
925
925
936
950
959
963
962
958
951
943
939
934
934
935
935
938
937
938
937
935
931
933
932
931
931
931
933
936
936
936
936
935
934
933
935
935
933
936
938
939
942
943
944
941
941
940
939
939
939
940
941
944
944
942
944
943
943
942
942
944
941
944
947
948
951
950
953
952
950
948
947
948
947
946
949
952
953
953
957
955
953
951
952
952
952
953
957
959
962
965
964
966
967
969
969
969
968
969
969
970
972
970
970
967
964
960
956
954
953
954
955
957
956
956
956
953
950
947
946
945
942
944
945
946
946
942
945
944
943
941
939
939
936
935
938
938
939
940
941
940
940
938
937
937
936
935
937
939
938
938
938
938
937
935
935
933
934
935
935
938
938
938
936
936
935
934
934
935
935
939
940
942
944
946
946
946
947
945
944
944
947
950
955
955
956
955
953
951
946
944
942
942
942
944
944
945
945
943
943
940
936
933
931
927
924
927
927
930
930
931
931
930
928
928
928
927
925
926
928
930
931
930
927
923
918
920
929
948
974
1009
1052
1097
1142
1178
1195
1183
1147
1091
1033
983
948
934
933
939
950
955
955
952
952
947
944
938
936
935
935
936
937
937
935
937
932
933
932
931
932
934
937
938
939
938
937
937
936
934
934
933
932
933
933
935
937
938
939
939
940
937
938
938
937
938
939
940
944
943
946
944
944
943
941
940
938
940
939
941
942
942
944
944
942
940
939
938
935
937
939
940
943
945
948
947
945
943
943
942
944
946
949
952
957
957
961
962
958
959
956
957
956
958
957
960
959
958
958
957
956
956
952
949
947
949
948
947
947
947
948
948
945
944
940
937
936
937
941
943
945
945
946
944
941
940
938
939
938
939
937
939
940
938
939
937
936
932
932
931
932
934
935
936
937
939
939
938
937
938
937
936
934
932
932
934
935
935
936
936
936
938
939
942
941
943
945
947
947
949
951
954
954
954
951
949
946
943
943
943
945
945
945
944
941
937
936
935
932
931
932
930
929
928
927
927
926
926
926
925
925
926
928
930
929
931
931
931
929
925
922
918
917
922
934
956
983
1020
1063
1108
1148
1175
1182
1158
1111
1054
997
953
927
921
927
934
943
947
945
943
942
941
941
939
938
937
937
934
931
930
927
930
929
930
931
932
933
937
935
936
936
933
933
934
934
935
935
936
937
937
939
939
937
936
936
935
934
935
937
938
940
941
942
943
942
941
940
939
940
942
942
944
945
946
946
946
945
943
941
940
940
940
944
944
945
946
946
945
945
944
942
943
943
945
946
948
950
951
951
952
955
954
954
953
955
958
960
961
965
965
966
967
966
964
962
962
959
961
959
960
957
958
959
958
956
953
952
950
949
949
950
951
951
953
952
951
948
951
947
946
945
946
946
948
951
952
951
951
950
950
947
946
946
947
947
948
949
950
951
950
949
948
946
946
944
945
945
948
948
950
949
948
947
945
943
942
943
943
944
946
948
949
948
951
952
951
952
955
953
955
957
959
960
961
962
965
964
966
966
962
960
958
959
955
957
959
958
956
953
951
949
949
947
946
944
944
943
941
943
941
940
938
938
939
938
939
941
942
943
944
943
942
945
943
942
940
936
934
931
936
942
957
981
1006
1040
1078
1114
1148
1170
1174
1154
1113
1064
1014
974
951
946
950
958
965
967
969
968
965
961
957
956
953
951
949
948
948
945
945
946
947
951
952
950
951
950
950
947
947
948
950
950
949
951
953
952
953
951
950
949
949
947
949
951
952
954
954
954
955
953
954
950
952
953
952
955
955
957
958
958
957
957
956
955
955
953
956
957
958
960
960
960
960
961
959
958
957
957
960
962
962
963
964
965
965
964
963
963
964
963
964
967
971
972
974
975
976
976
975
976
976
975
974
977
976
980
977
981
978
976
972
970
969
967
967
969
967
968
968
967
966
960
958
958
958
956
957
957
957
957
958
956
959
957
954
953
953
954
954
954
956
955
957
954
955
954
952
949
951
950
950
952
953
953
953
954
954
952
949
949
949
948
948
950
951
952
953
952
950
950
947
946
943
944
946
948
950
951
954
957
957
957
959
957
957
957
957
959
962
963
968
969
970
968
966
962
959
955
955
954
956
955
956
956
955
953
948
946
941
939
936
936
937
939
942
943
942
943
942
939
939
938
940
941
942
944
945
944
943
939
934
930
932
937
953
975
1004
1039
1080
1118
1154
1176
1175
1147
1100
1041
989
955
939
941
953
965
970
972
967
963
957
952
949
948
947
950
950
950
950
948
946
945
944
945
947
947
948
949
950
950
949
948
949
948
947
949
947
949
949
951
952
953
952
951
948
947
947
947
948
951
952
954
956
958
956
955
954
953
953
955
954
955
954
955
959
959
959
958
958
956
954
955
956
959
959
961
963
962
961
960
960
959
959
957
958
963
961
964
967
968
969
970
969
971
970
969
973
973
974
977
978
977
976
974
973
971
968
966
966
966
964
966
965
963
963
962
959
957
955
954
953
952
954
955
956
956
956
954
951
950
949
946
949
949
953
952
950
951
949
948
947
947
946
946
946
947
949
950
950
950
949
949
946
944
944
944
943
943
944
946
946
946
946
945
944
942
942
941
942
944
945
948
948
950
951
952
953
950
952
953
952
956
956
957
958
961
964
965
966
963
960
958
954
953
951
952
952
953
953
950
950
948
946
945
942
943
939
940
939
940
940
940
936
934
934
936
938
937
939
941
941
943
942
941
940
936
931
928
926
930
942
958
982
1013
1049
1089
1126
1160
1175
1172
1144
1099
1049
1000
964
944
939
946
956
960
963
962
959
956
951
950
948
947
943
945
945
944
940
940
940
942
943
943
945
946
945
943
944
943
943
942
943
944
944
944
944
947
947
946
946
944
945
942
944
945
947
948
947
951
952
951
948
948
946
948
948
949
950
953
952
953
953
952
951
950
950
948
948
949
948
952
951
948
950
948
946
945
945
944
947
949
951
953
955
956
957
957
957
955
955
955
956
959
965
966
968
970
972
972
971
971
970
969
969
969
967
968
968
968
966
964
962
958
955
955
953
954
955
954
954
955
953
950
948
945
947
946
943
946
946
947
950
948
949
948
946
943
946
943
945
945
944
946
946
944
946
943
943
941
940
939
941
941
941
943
944
944
943
943
941
940
939
940
940
940
943
944
945
946
946
947
944
946
945
947
950
949
952
953
956
960
963
964
963
961
957
952
949
947
946
946
945
946
946
947
946
943
943
939
934
935
933
935
934
935
935
936
934
934
931
933
933
935
936
937
937
938
938
933
929
924
922
924
935
954
983
1019
1064
1114
1163
1194
1201
1173
1121
1057
998
957
937
936
943
956
963
962
960
956
951
944
939
937
938
941
943
943
944
943
942
940
937
937
935
938
939
941
943
942
941
944
940
940
938
938
937
937
939
941
943
944
946
947
948
945
944
942
943
943
947
949
950
948
946
946
943
943
941
940
942
944
948
948
950
949
947
948
946
943
942
943
943
943
946
949
951
952
951
952
949
949
948
946
945
946
948
952
956
957
959
959
961
961
962
962
963
965
966
967
967
968
970
967
966
963
963
962
960
960
959
958
960
957
957
954
954
951
952
949
948
949
949
949
951
950
949
949
947
946
942
940
942
944
944
946
950
950
949
946
944
942
941
941
941
941
943
943
945
945
947
944
945
943
941
939
940
939
939
938
940
940
940
940
939
939
938
936
934
935
935
936
938
943
946
950
951
951
951
948
946
947
946
951
953
955
957
956
955
952
952
948
949
949
947
947
946
945
944
944
942
941
935
933
931
930
930
933
935
934
936
934
934
930
931
930
931
932
932
933
934
932
932
926
920
917
920
928
948
974
1011
1054
1102
1150
1189
1210
1201
1164
1106
1037
979
939
924
924
937
946
954
957
952
950
945
942
938
937
936
939
944
942
942
942
940
937
935
934
933
933
933
933
938
937
937
939
940
938
936
936
937
939
939
940
943
942
943
945
944
944
942
940
940
943
942
945
947
945
947
946
945
946
944
943
943
944
945
949
949
950
950
948
946
944
943
944
944
946
944
947
947
948
949
946
947
944
944
944
942
945
946
948
951
952
955
955
957
957
959
960
959
959
963
963
964
967
967
966
963
960
958
958
954
954
957
958
958
956
956
953
950
948
947
946
945
947
947
946
948
947
947
948
947
944
944
943
943
945
946
945
948
947
946
947
943
943
941
942
940
941
941
940
944
943
945
944
941
941
939
939
939
939
941
941
942
942
942
942
941
940
939
938
937
939
939
943
944
945
949
949
951
951
952
950
949
952
952
953
958
961
963
963
962
960
955
953
951
952
951
952
953
954
952
952
949
946
944
941
938
937
935
938
937
938
937
941
939
938
937
937
935
937
939
940
942
943
941
939
935
928
924
924
934
953
978
1016
1061
1108
1155
1191
1204
1187
1142
1079
1015
965
936
930
941
953
965
970
970
966
962
957
952
949
949
950
951
953
951
950
950
947
946
945
943
944
945
946
951
951
950
950
950
947
947
946
946
947
950
952
954
954
954
954
953
953
949
952
951
950
952
955
956
955
956
955
956
954
950
953
952
952
953
953
955
955
957
956
955
952
953
951
951
952
953
955
957
957
956
955
954
952
955
954
953
954
958
960
963
966
969
970
971
972
970
970
971
974
975
975
975
977
977
975
972
970
967
965
964
964
964
964
964
964
962
963
959
958
955
954
954
953
955
955
956
957
955
954
952
953
951
950
949
951
951
951
952
954
953
952
951
950
947
947
945
947
947
951
949
951
949
948
948
947
945
945
945
944
945
945
947
948
947
949
944
942
942
943
941
946
947
950
953
955
956
957
959
957
956
955
956
957
964
965
970
969
970
967
962
958
955
952
952
952
954
956
955
954
955
953
950
946
941
938
936
934
935
937
941
940
941
940
939
940
940
939
938
940
940
942
943
943
942
940
935
929
927
927
936
954
981
1008
1045
1083
1127
1163
1190
1194
1173
1130
1073
1016
972
948
941
948
960
968
970
971
966
963
955
952
950
950
950
949
951
950
948
948
944
944
943
944
943
945
944
946
945
947
947
946
947
946
946
945
947
949
950
950
952
952
951
950
948
949
949
951
949
950
952
956
957
957
956
955
954
953
952
954
955
955
956
959
959
958
957
955
955
954
954
956
957
958
961
959
960
961
958
957
958
959
957
958
960
958
961
964
964
964
966
966
970
971
970
972
975
976
977
981
982
980
980
977
977
973
972
972
972
972
971
972
971
970
967
966
964
962
959
959
960
960
962
962
962
961
960
958
958
956
957
955
957
957
959
960
960
958
958
956
954
954
953
955
955
954
957
956
956
956
953
952
950
949
948
949
951
950
952
952
952
952
951
949
947
946
946
947
949
948
952
951
951
954
953
953
952
953
953
955
958
961
963
965
964
965
964
966
967
969
968
967
966
963
963
962
958
958
955
957
954
952
952
952
951
951
950
947
947
944
942
941
940
939
940
939
942
941
944
944
944
944
943
943
941
940
938
936
932
930
931
936
949
967
992
1024
1063
1108
1147
1181
1193
1174
1132
1077
1019
975
945
936
943
954
963
967
969
969
966
962
956
953
950
948
947
946
945
947
947
947
947
946
948
946
946
944
944
943
943
946
945
948
949
950
951
953
951
951
950
949
948
949
949
950
952
952
955
955
955
952
951
951
950
950
951
953
954
954
954
955
954
953
953
952
951
951
953
955
957
958
957
957
954
953
950
951
952
952
953
954
956
957
957
957
958
956
956
956
953
956
956
959
963
963
966
968
968
969
970
968
969
971
973
974
977
975
976
975
973
970
967
966
961
962
962
965
963
961
962
958
958
956
954
952
952
953
951
953
955
955
955
953
952
949
950
950
948
949
949
948
950
949
951
951
948
949
945
944
945
945
945
947
946
948
948
946
948
948
947
946
945
944
945
944
945
945
945
945
945
944
940
941
939
941
942
944
947
950
953
954
955
955
956
954
954
954
956
960
963
968
971
969
964
958
954
950
948
947
950
950
953
953
952
950
947
944
942
939
937
935
936
936
939
940
940
938
937
936
933
935
933
935
937
938
940
940
935
930
927
927
933
950
975
1009
1053
1101
1147
1187
1203
1188
1143
1083
1023
972
943
933
938
951
960
965
967
965
961
952
947
942
942
938
938
937
939
941
944
941
941
939
937
937
935
936
937
937
937
941
942
941
943
941
940
941
942
941
944
944
946
947
949
947
947
947
945
947
945
946
944
948
948
951
950
949
950
947
946
947
946
946
947
948
950
952
948
951
952
951
949
946
946
948
948
947
950
952
953
954
955
954
952
950
951
951
952
955
959
960
961
964
964
965
966
967
969
969
968
971
970
971
968
969
967
964
960
958
955
956
956
958
959
958
956
956
954
951
950
950
948
948
947
947
949
951
950
949
949
946
944
942
940
942
943
944
946
948
946
945
944
943
943
941
940
940
940
942
942
944
942
943
942
940
939
936
937
935
933
934
936
938
940
937
937
936
934
933
936
936
937
940
942
945
949
951
949
950
947
948
948
950
954
957
957
961
960
958
953
951
947
947
945
944
944
945
947
947
945
943
939
935
933
931
928
928
929
931
930
933
934
935
934
933
930
928
930
928
930
931
933
933
931
928
926
927
935
951
973
1004
1044
1091
1135
1173
1191
1187
1150
1099
1039
987
953
933
934
939
948
954
957
954
952
947
941
939
936
936
938
939
938
937
938
938
937
936
936
934
931
931
933
935
935
937
939
939
940
936
936
935
934
935
936
938
941
942
944
945
943
942
941
939
937
937
937
938
940
941
942
944
944
942
941
940
939
937
938
940
943
943
944
942
939
938
937
939
940
940
941
941
943
942
944
945
945
943
944
943
945
945
948
951
953
956
957
961
962
961
960
960
959
958
963
963
963
963
961
964
957
956
953
954
953
952
952
951
953
952
951
951
947
945
945
943
942
941
941
943
943
945
945
946
945
943
942
940
941
940
939
941
941
944
943
942
941
940
938
939
937
935
937
939
940
941
941
940
940
939
937
935
935
935
935
937
937
939
939
939
939
937
937
937
940
939
943
946
950
950
951
952
950
952
951
952
954
956
958
956
956
952
952
951
949
948
946
944
943
942
942
942
942
940
938
936
932
931
931
929
930
928
931
933
934
936
938
937
935
935
934
935
932
931
931
928
924
923
923
933
950
972
1003
1040
1083
1127
1168
1190
1191
1163
1111
1052
995
953
932
929
936
946
954
959
960
958
955
952
947
945
941
941
938
937
939
941
941
944
941
943
942
940
939
939
939
938
939
940
940
942
942
943
943
943
941
939
940
940
944
944
947
949
949
949
949
948
948
946
944
943
946
946
947
946
947
949
948
947
945
944
943
944
945
947
948
948
949
950
947
946
947
946
945
944
946
947
948
947
948
949
947
948
947
946
946
946
949
952
953
957
959
960
961
963
962
963
963
963
966
967
964
970
969
970
967
963
962
960
959
957
957
957
958
959
956
956
957
954
953
951
951
951
951
950
952
953
953
952
951
951
949
949
947
946
947
947
949
952
950
951
949
948
947
944
945
942
943
945
944
946
946
948
946
946
945
944
944
943
941
941
943
944
945
948
947
945
943
942
942
942
945
947
950
953
956
958
957
958
956
954
956
956
959
961
965
969
967
966
960
955
953
951
951
949
951
951
951
949
949
950
949
943
942
938
934
935
935
936
937
940
940
941
941
938
937
936
934
935
935
937
937
938
937
935
933
928
925
929
939
958
982
1013
1050
1091
1131
1165
1188
1184
1159
1112
1056
1002
964
943
939
948
957
968
970
967
964
958
951
946
945
945
946
947
947
948
946
945
944
940
941
942
942
944
944
947
946
946
946
945
945
945
941
943
944
945
946
947
949
949
949
948
948
946
945
946
945
946
948
949
951
950
950
950
948
947
948
946
948
949
949
952
952
952
952
952
951
950
949
947
950
952
951
954
954
954
954
952
951
947
949
948
948
949
949
951
952
955
956
952
955
955
954
954
957
959
962
965
969
969
969
968
968
967
967
967
969
971
970
970
971
970
969
967
964
961
959
957
959
957
958
959
958
957
958
955
954
952
950
952
951
950
953
954
955
954
954
951
948
947
947
947
947
947
946
947
948
949
950
947
947
946
946
946
946
948
947
948
951
951
949
949
946
946
945
944
943
946
946
948
948
948
947
947
946
944
945
943
945
947
950
952
955
955
958
957
958
956
955
957
958
959
961
963
966
969
972
969
965
961
958
956
955
954
953
954
955
956
955
952
949
948
945
940
940
939
940
940
942
942
943
940
938
937
938
936
939
938
941
941
941
941
938
935
928
926
927
936
956
983
1017
1058
1104
1146
1183
1197
1186
1149
1093
1035
982
948
935
938
950
960
967
967
964
960
954
950
946
946
946
948
948
948
946
946
944
943
941
941
941
944
943
946
947
948
949
946
945
946
945
944
945
946
946
950
949
948
949
949
947
946
946
946
947
949
950
951
953
952
951
950
952
950
949
948
950
951
950
951
952
953
953
952
952
950
949
948
951
952
954
954
956
958
955
955
955
951
953
951
953
955
957
960
963
965
966
967
966
967
967
970
972
974
976
978
978
978
977
977
976
973
970
970
969
969
969
969
968
967
967
962
963
958
957
956
957
958
959
959
960
957
957
956
954
953
951
951
951
951
952
953
953
952
951
949
950
950
947
947
949
949
949
951
953
950
952
952
950
948
949
947
946
947
948
950
951
951
951
949
947
946
946
945
945
948
948
951
954
954
954
955
956
955
956
956
957
959
960
961
963
966
969
970
970
968
964
959
957
956
956
957
956
959
957
955
952
952
950
949
947
946
945
945
944
946
944
945
944
942
941
940
941
942
944
946
944
947
945
944
944
941
939
933
931
933
942
956
976
1007
1039
1076
1116
1151
1174
1175
1155
1110
1061
1012
976
952
944
949
957
962
965
965
963
961
958
955
953
952
952
951
949
947
947
948
950
949
952
952
951
952
953
952
950
949
948
947
949
949
952
954
953
954
954
954
952
950
947
948
948
952
954
956
958
957
956
955
954
953
953
951
953
955
956
956
958
960
959
958
956
955
953
954
953
955
956
957
958
959
957
957
955
955
954
955
956
956
958
961
963
964
967
965
966
966
966
967
969
971
973
978
979
982
984
982
983
980
981
977
976
976
977
977
978
975
974
974
972
968
968
966
965
962
963
963
962
963
963
961
959
959
958
956
957
958
957
959
959
959
958
957
957
955
954
952
952
954
954
956
956
956
953
953
952
952
951
951
953
952
954
952
954
954
954
953
951
949
951
950
949
951
952
954
954
956
957
956
958
957
958
960
961
962
964
967
967
968
969
973
973
972
972
969
966
963
962
963
962
965
961
961
959
956
955
954
954
950
948
948
948
947
946
945
944
943
943
943
944
944
946
944
944
945
947
947
946
945
943
938
937
935
940
952
969
997
1026
1063
1104
1141
1174
1190
1182
1152
1109
1061
1015
981
963
956
958
961
965
965
965
963
961
961
959
956
955
952
949
948
947
946
948
948
949
951
953
953
953
953
952
949
948
947
948
949
951
952
953
954
954
954
952
952
951
950
950
951
952
954
953
954
957
958
955
957
954
953
953
953
955
958
960
958
959
958
958
957
957
956
957
957
957
957
960
960
960
960
958
957
957
955
956
958
960
961
963
962
964
964
964
965
966
966
970
970
972
976
978
980
979
980
981
978
978
977
977
978
976
979
976
976
971
971
969
967
966
964
962
962
963
961
962
963
963
963
961
958
956
955
953
955
954
955
955
957
958
958
957
953
952
949
949
951
952
952
955
954
954
953
953
950
950
949
948
948
949
950
950
950
951
951
948
949
949
949
948
950
950
950
951
955
954
955
957
957
957
958
960
961
963
964
965
968
970
971
971
969
966
962
961
961
963
962
963
962
961
960
957
956
955
952
948
948
946
947
947
947
947
947
947
946
943
944
944
945
946
948
949
949
948
947
946
944
940
935
931
931
937
949
970
995
1027
1066
1109
1151
1184
1199
1187
1154
1104
1048
1003
969
952
949
951
957
960
962
961
962
960
960
959
955
953
950
947
945
944
944
945
946
948
949
952
952
953
951
950
948
947
947
946
948
951
951
953
954
952
951
951
950
950
950
949
952
954
954
954
955
954
952
953
952
952
953
951
953
955
956
957
956
957
957
953
953
952
952
952
953
954
957
959
958
958
957
957
955
953
951
951
952
953
956
956
958
959
959
960
960
959
960
960
963
967
969
974
973
978
977
975
976
974
975
973
973
976
976
976
977
975
973
971
966
966
963
961
962
961
965
963
963
963
961
959
957
956
956
955
955
956
958
957
959
960
956
954
954
952
952
950
952
953
952
956
956
956
956
956
955
954
952
952
952
953
954
954
955
956
954
952
950
950
951
949
951
951
952
953
953
955
954
951
951
950
951
953
954
958
960
961
964
963
963
962
963
964
965
970
971
972
969
968
966
965
964
962
960
958
958
956
954
955
954
953
951
951
949
947
946
945
945
944
945
946
948
948
949
952
949
948
946
947
943
940
937
934
937
947
962
990
1023
1061
1104
1149
1181
1196
1186
1150
1097
1038
989
959
946
947
956
963
969
969
971
969
967
963
961
959
956
957
956
953
954
952
952
953
954
957
957
958
957
956
954
954
953
953
953
956
956
959
958
960
960
958
959
958
959
957
957
959
961
965
962
964
961
961
960
959
958
958
960
959
962
963
965
965
964
961
961
961
960
960
960
960
963
964
963
964
964
963
962
959
959
959
959
959
962
962
966
967
968
967
965
965
968
970
972
976
979
982
984
986
986
985
983
982
981
980
981
982
982
983
982
980
978
976
974
972
972
972
972
971
971
970
971
971
969
968
967
967
965
966
963
964
966
965
966
967
966
964
963
961
959
960
963
963
962
964
964
963
963
962
961
959
957
958
958
958
961
961
961
960
962
960
959
957
956
956
957
959
958
960
960
960
960
961
961
961
960
963
966
967
969
972
972
973
974
972
973
973
976
974
976
976
971
973
970
968
968
966
964
961
961
960
959
960
960
959
956
955
954
952
948
948
947
946
948
949
952
953
954
954
955
951
948
949
950
949
949
947
943
940
939
948
961
983
1011
1046
1085
1129
1170
1201
1207
1185
1138
1078
1016
971
947
944
953
965
975
981
981
979
973
967
963
960
956
955
955
954
955
956
956
958
956
959
955
954
953
950
952
950
949
953
955
956
956
958
958
954
956
956
955
955
956
958
960
959
962
962
961
960
960
959
959
959
959
962
962
963
965
966
964
965
963
960
959
960
962
962
964
964
966
967
966
963
963
962
960
959
959
962
962
965
965
967
966
966
964
964
963
965
965
968
972
975
975
978
981
980
979
980
981
980
981
982
984
986
984
985
984
982
979
977
976
974
972
974
973
973
973
972
969
968
966
963
961
959
962
963
963
964
964
965
963
962
960
960
959
957
958
960
961
962
964
962
961
957
959
958
958
956
959
958
959
961
960
959
958
957
958
955
954
954
952
954
957
958
958
959
958
956
955
953
953
952
955
957
959
963
966
966
966
969
967
967
968
965
966
970
971
976
978
981
978
976
972
966
964
963
962
963
963
966
964
964
964
962
959
956
953
949
948
949
951
950
950
953
952
952
950
949
946
947
948
948
949
952
953
954
952
948
944
938
936
938
948
965
986
1015
1049
1090
1129
1165
1190
1200
1184
1145
1096
1045
1000
968
953
952
959
969
973
973
972
970
968
963
961
959
958
957
955
956
955
954
953
952
953
952
954
955
957
957
956
955
954
952
952
952
953
954
956
956
958
958
958
957
955
955
954
953
955
956
957
958
959
958
961
957
957
957
957
955
957
956
960
960
962
962
961
960
959
956
958
956
957
958
960
961
963
962
963
960
959
957
957
958
958
960
963
963
965
966
966
967
966
967
966
968
969
974
975
979
980
982
981
982
981
980
980
979
980
981
981
981
979
980
978
976
974
971
969
968
966
965
968
970
969
967
968
965
963
961
961
957
959
960
961
963
961
962
962
960
957
958
956
954
955
956
955
959
958
959
959
957
957
954
954
953
952
955
954
956
956
956
957
954
954
953
951
952
951
951
953
956
957
960
960
962
962
961
963
962
963
963
964
968
973
976
977
975
975
971
966
962
960
960
962
963
962
962
962
962
958
955
953
950
947
945
946
947
946
948
950
950
947
946
946
945
947
947
948
950
952
951
949
947
942
936
934
937
949
969
995
1029
1071
1116
1161
1195
1205
1187
1146
1089
1030
982
954
943
948
960
969
974
974
972
968
962
960
958
955
954
954
955
956
955
955
952
952
950
950
950
953
955
955
955
956
953
953
952
952
953
953
953
956
957
957
957
956
955
953
953
952
952
953
955
955
957
959
959
959
958
958
954
954
953
956
956
957
959
961
959
961
959
956
955
955
954
954
957
957
959
960
960
960
959
959
958
957
956
956
957
960
963
963
964
966
965
965
966
968
968
969
973
976
979
980
984
984
983
982
980
978
978
978
979
980
981
978
978
975
975
971
968
966
965
963
965
966
969
968
965
965
965
961
960
959
959
958
959
961
960
960
961
959
959
958
954
955
954
954
955
956
957
955
955
957
955
954
953
951
950
950
951
952
954
953
955
954
954
952
949
950
949
950
950
953
955
956
958
959
961
960
960
962
960
961
963
966
967
970
974
976
977
974
970
966
963
961
961
961
962
963
961
961
960
958
956
954
951
948
947
946
944
947
948
949
949
947
946
944
944
943
946
947
948
948
950
947
943
936
929
933
946
967
996
1034
1080
1126
1172
1201
1201
1174
1124
1063
1009
966
943
940
950
963
972
975
974
971
966
962
958
953
952
953
955
955
955
956
955
953
949
950
947
948
951
953
953
955
954
954
956
951
952
951
950
950
952
954
954
956
956
956
954
956
954
952
950
953
955
956
956
958
957
958
957
954
953
953
953
952
951
953
954
956
957
958
957
958
956
955
954
954
955
957
959
960
962
961
961
960
958
957
958
958
960
963
965
969
971
974
974
975
974
976
975
976
978
979
981
984
984
982
982
979
976
973
971
971
969
971
970
970
970
970
966
963
960
959
957
956
957
959
960
961
962
961
960
956
954
954
952
952
954
955
958
958
957
958
955
954
951
950
948
950
952
949
952
952
953
953
951
949
948
947
949
948
947
949
951
952
951
950
948
949
949
948
949
953
954
958
960
963
965
965
963
962
961
962
967
969
972
973
971
968
966
962
960
958
956
956
955
955
955
956
957
956
953
953
949
945
945
940
940
940
942
944
947
947
947
948
946
944
940
941
941
941
941
940
937
935
933
941
951
968
992
1025
1064
1108
1153
1189
1208
1196
1159
1106
1047
999
962
944
942
952
961
966
970
969
968
964
960
956
953
949
947
947
948
948
948
952
950
951
950
951
949
947
947
947
948
950
949
951
950
952
952
951
949
949
948
947
949
951
952
953
955
954
955
954
952
948
950
949
953
954
955
957
958
954
955
956
954
954
954
955
956
957
959
959
960
960
959
958
957
955
955
952
955
956
957
959
960
961
960
960
959
959
960
961
963
967
968
970
973
973
974
973
972
972
973
973
977
978
979
978
978
976
975
972
969
967
964
964
965
964
965
964
964
962
960
958
956
953
951
950
950
952
955
956
955
957
957
955
953
949
949
948
949
950
949
951
951
949
949
947
946
944
943
943
945
946
948
946
947
946
946
945
944
944
942
943
943
944
942
945
944
948
946
944
942
941
941
942
944
947
950
953
956
955
956
955
952
953
954
955
960
965
966
966
967
963
958
955
953
951
949
948
949
948
947
947
947
947
946
942
939
936
933
933
932
934
934
936
938
938
939
935
933
933
932
932
933
935
936
936
935
930
924
920
921
931
949
975
1008
1051
1095
1144
1186
1211
1209
1179
1127
1068
1012
966
945
937
940
952
957
960
960
955
954
950
947
942
942
939
941
940
941
940
940
939
937
936
933
934
937
936
938
940
941
942
942
939
939
937
936
936
938
938
939
943
944
945
944
941
942
940
940
939
940
941
940
943
942
944
942
941
942
942
941
942
942
944
944
947
947
946
946
945
943
941
941
942
943
946
946
947
947
948
948
946
945
945
947
944
947
948
949
952
951
954
952
955
954
955
955
957
961
961
963
967
968
969
968
968
966
964
962
958
960
960
960
961
959
960
958
955
953
951
949
947
948
948
948
949
947
949
948
946
947
947
944
944
945
946
946
944
944
944
943
941
941
940
941
940
938
941
942
943
943
943
943
941
940
939
939
938
939
940
939
942
942
943
944
940
940
939
937
937
938
939
946
948
949
951
951
951
948
949
949
951
954
958
960
963
962
958
957
953
949
950
948
946
948
949
948
948
948
946
942
939
933
931
932
932
933
935
934
937
938
937
936
933
933
932
932
931
932
933
933
928
923
921
923
928
944
969
1003
1046
1096
1149
1191
1213
1206
1162
1102
1037
980
945
930
931
943
952
958
961
959
958
955
949
944
940
938
939
939
940
941
943
943
940
939
938
938
936
933
934
936
936
940
942
942
944
943
942
941
940
941
940
942
941
945
946
947
947
946
946
945
945
945
944
944
946
948
948
949
948
948
946
947
944
946
946
944
947
947
950
950
951
950
948
944
945
943
945
945
946
947
948
949
952
952
952
950
948
949
949
950
952
956
959
961
963
963
963
964
963
965
963
966
967
969
969
969
969
969
965
966
962
960
959
959
959
959
957
957
957
954
954
951
950
953
950
952
952
952
953
954
954
953
952
950
949
949
948
949
949
950
952
951
953
949
950
948
946
946
943
947
946
948
948
949
948
948
947
944
943
943
941
943
943
944
945
945
947
945
944
943
943
943
946
947
949
954
954
955
957
958
957
955
956
958
962
964
965
964
963
959
956
955
953
950
951
950
948
949
948
950
949
947
946
942
940
937
933
934
934
933
936
938
940
941
941
940
939
938
938
937
935
937
936
935
934
931
930
937
949
969
995
1032
1075
1123
1167
1194
1197
1169
1118
1056
999
957
937
937
947
961
967
970
968
965
960
952
948
944
941
943
944
945
945
945
946
946
947
948
945
945
942
942
942
943
946
944
948
948
949
947
948
945
944
942
944
945
946
947
948
949
949
950
949
948
948
948
947
948
948
951
952
953
954
953
950
949
950
948
948
949
950
951
954
955
953
954
950
949
948
947
946
949
950
953
953
954
955
956
956
954
955
956
957
960
962
965
969
972
972
973
972
972
970
970
969
968
969
969
970
969
966
963
963
962
959
958
957
956
955
955
956
956
958
957
956
955
952
950
950
950
951
952
952
954
952
953
952
950
948
949
946
948
950
950
953
953
953
952
949
948
946
945
945
947
947
948
949
950
950
949
948
947
946
945
943
944
948
949
951
954
955
959
958
957
958
957
957
959
961
961
965
968
971
969
970
965
961
957
953
953
952
953
956
953
954
953
952
950
948
944
941
942
940
939
942
942
942
943
941
942
940
939
939
940
940
944
942
946
945
944
939
933
929
929
936
953
974
1003
1038
1081
1124
1164
1190
1189
1164
1120
1062
1007
966
945
942
950
961
969
973
971
968
961
956
950
950
949
948
949
948
948
945
944
944
944
944
944
945
946
949
948
950
948
948
947
946
946
945
946
947
950
952
952
952
952
951
949
948
948
949
950
950
950
953
954
953
955
952
953
953
952
950
951
952
952
955
956
955
954
953
952
950
950
948
949
950
952
954
954
956
954
954
953
953
953
952
952
956
955
958
960
963
964
965
964
966
968
967
971
971
972
975
976
977
976
974
973
972
970
967
967
966
967
967
967
967
964
962
960
957
956
956
954
956
955
958
957
959
957
956
953
952
951
948
949
949
952
952
953
954
953
951
952
948
947
947
948
948
949
951
950
950
951
949
949
945
947
945
945
945
948
949
949
951
951
949
947
946
946
944
948
949
952
953
955
959
957
958
957
957
958
957
959
963
969
970
971
970
966
962
960
956
954
952
953
952
954
953
953
954
952
950
946
942
938
936
938
936
939
941
942
942
943
941
941
941
938
938
938
940
940
941
941
940
936
931
930
933
944
963
988
1021
1062
1106
1148
1180
1190
1172
1131
1073
1019
971
944
936
942
954
964
970
969
967
962
954
951
946
945
945
945
947
946
946
945
944
943
942
941
940
943
944
942
945
946
947
947
947
946
943
946
942
945
945
948
947
949
950
950
949
947
946
945
946
948
948
948
951
950
951
953
951
950
949
947
947
950
949
950
950
952
954
952
951
947
948
947
945
948
949
951
951
953
955
953
953
953
951
950
950
950
953
956
958
961
960
963
964
963
964
966
969
970
971
974
975
976
978
978
977
974
974
971
971
970
970
969
970
969
967
965
963
963
958
956
953
954
955
953
954
954
954
955
954
954
951
950
948
948
949
950
950
952
952
951
950
948
947
947
946
944
944
948
948
949
948
949
947
944
945
945
943
944
944
946
947
946
946
946
946
944
945
944
946
947
949
951
956
956
960
961
960
959
958
959
962
964
967
968
966
962
959
957
955
953
949
951
948
949
950
950
948
948
946
942
941
937
934
934
933
935
934
936
937
940
940
941
940
939
937
934
934
932
932
928
929
934
947
964
991
1025
1066
1111
1155
1183
1187
1165
1121
1068
1011
968
944
935
941
952
959
963
964
961
957
955
952
950
948
946
944
942
940
941
942
941
942
944
945
944
945
944
943
944
941
944
946
945
947
949
949
949
949
950
947
946
947
945
948
950
951
950
952
951
952
950
948
948
949
949
950
951
953
954
954
955
954
953
951
949
946
948
949
950
951
953
953
953
953
952
952
953
951
951
954
955
956
958
959
959
959
958
956
958
957
961
962
965
968
969
971
972
973
973
972
972
971
973
973
973
976
977
977
975
974
973
971
967
965
965
964
965
965
965
966
964
962
960
958
956
955
953
955
953
954
957
957
956
957
955
952
950
948
948
949
951
953
952
952
954
952
950
950
950
949
947
949
949
948
950
949
950
947
946
948
948
946
945
946
948
946
948
948
949
949
949
948
949
947
949
950
955
957
960
959
961
962
963
962
961
963
964
969
969
971
969
967
965
962
960
957
958
955
954
955
955
956
956
954
954
952
949
943
942
940
940
940
943
944
946
949
947
946
943
942
942
943
941
942
942
943
941
936
930
929
934
947
967
996
1032
1077
1126
1172
1203
1210
1191
1145
1085
1025
979
952
941
946
957
966
971
971
970
966
960
955
951
948
948
947
947
948
949
949
950
948
947
946
943
944
943
944
946
949
950
951
950
949
948
946
946
946
946
949
949
951
952
951
951
953
953
952
951
950
952
952
955
957
959
958
957
956
956
954
953
953
952
953
953
957
956
957
958
958
956
957
956
955
954
955
956
958
958
960
960
962
961
960
960
960
959
962
964
968
968
971
974
975
972
973
973
973
975
977
978
979
979
980
977
978
975
971
968
967
965
966
966
967
968
967
966
965
964
964
961
959
957
957
957
959
959
960
960
957
957
955
952
952
952
953
953
954
955
955
957
956
956
953
952
951
949
951
951
951
952
953
953
950
950
950
948
947
948
949
949
951
951
951
949
948
947
947
947
950
950
953
955
957
959
962
961
963
961
959
958
959
962
966
970
973
972
968
966
963
961
958
957
954
953
955
955
956
957
958
954
953
948
943
941
938
935
935
940
941
943
945
946
946
945
942
939
937
938
939
940
940
943
940
937
930
924
925
934
951
975
1009
1049
1096
1143
1185
1215
1220
1198
1151
1093
1033
982
955
942
945
955
961
966
966
964
960
958
954
954
951
951
949
949
948
949
946
944
941
940
940
938
941
943
947
949
951
952
951
949
947
944
946
943
944
946
949
953
953
953
952
951
949
948
948
948
949
952
952
954
955
953
954
951
951
949
948
948
949
951
952
954
955
954
954
954
952
952
950
950
952
952
952
954
952
952
953
953
953
952
952
952
952
955
958
961
963
965
965
964
965
964
968
970
970
973
972
973
975
975
973
973
969
967
966
964
963
964
964
963
965
965
962
960
958
957
955
955
955
954
957
957
958
958
956
953
952
952
952
950
952
954
954
956
956
956
956
953
953
951
951
950
952
954
951
953
952
954
952
952
950
948
946
944
946
948
949
948
949
951
950
949
950
950
952
952
955
960
962
962
963
964
962
963
963
964
967
968
970
968
968
965
962
963
961
960
956
955
954
953
952
954
952
951
949
947
946
942
942
939
941
939
941
942
944
945
943
946
946
944
943
942
941
938
936
934
932
935
946
964
990
1022
1062
1105
1147
1183
1199
1187
1148
1094
1033
983
952
941
944
954
963
967
969
969
968
965
961
960
956
954
952
949
950
947
949
948
950
950
952
950
951
950
950
948
949
950
951
952
954
954
954
954
953
955
953
951
951
951
954
956
957
958
959
960
958
957
957
954
954
954
955
956
958
959
960
960
959
956
955
953
953
956
955
956
957
960
960
958
959
958
956
956
955
955
955
957
959
960
960
961
960
960
958
958
959
960
961
965
967
970
973
978
975
976
975
976
975
977
978
978
978
979
979
978
975
974
971
970
969
965
967
967
965
965
968
966
965
964
963
959
958
957
959
958
959
959
960
960
959
958
957
954
955
953
953
956
955
956
957
958
958
954
954
949
950
949
950
952
952
954
953
955
954
952
952
950
949
948
949
952
951
953
955
957
956
958
959
960
959
960
961
963
964
967
969
971
974
974
972
970
967
962
959
960
960
960
960
960
959
957
955
954
952
948
946
943
943
943
943
945
946
945
943
942
943
941
942
945
946
947
948
949
948
946
941
934
931
930
938
956
980
1011
1049
1092
1136
1176
1198
1194
1163
1109
1049
994
956
942
946
958
968
974
976
971
967
960
956
952
952
950
952
952
954
951
952
947
946
945
945
948
948
948
949
951
951
949
949
949
948
948
949
950
952
953
955
954
955
954
952
951
950
951
952
954
954
955
957
957
956
956
952
953
953
954
954
955
956
958
958
958
957
957
957
955
956
954
956
955
957
957
958
959
958
956
956
954
956
953
956
958
958
960
960
963
964
965
964
963
964
966
967
968
971
974
975
977
977
975
974
972
970
969
969
969
968
971
970
969
967
963
962
960
958
956
958
958
958
957
958
958
956
956
954
951
952
952
952
952
953
952
954
953
955
953
953
951
951
950
952
951
949
951
951
952
953
953
951
947
947
947
946
946
950
950
949
950
949
950
949
946
946
944
945
947
949
952
954
957
957
958
957
957
959
957
958
958
961
963
970
973
972
972
965
961
958
954
952
953
956
955
956
955
954
952
950
946
945
941
941
938
938
939
940
942
940
939
940
938
938
937
939
939
940
943
944
944
942
940
934
926
921
923
934
953
977
1010
1047
1092
1138
1177
1196
1187
1150
1097
1036
983
948
936
940
953
964
970
971
968
962
957
952
951
949
950
950
950
950
948
946
945
942
944
942
944
944
947
946
948
947
948
946
946
944
945
945
948
949
950
950
952
951
950
948
948
948
947
948
951
952
952
952
953
954
953
950
950
950
948
949
952
952
954
955
955
956
954
950
949
950
950
952
952
955
956
953
956
956
956
953
952
952
953
953
953
955
957
959
960
961
960
960
960
962
963
964
966
967
970
974
975
976
976
975
973
972
971
970
970
972
972
972
972
970
969
965
962
960
960
959
961
959
958
959
959
958
956
955
953
952
950
950
951
953
953
954
955
953
952
951
948
947
948
949
949
950
952
953
951
951
950
948
947
946
945
946
948
948
950
951
950
950
950
948
946
944
945
945
946
947
948
948
947
947
948
947
947
948
948
951
952
955
957
958
962
962
962
963
966
965
969
968
967
966
963
959
958
956
958
953
952
951
950
949
950
949
949
948
944
942
940
938
937
935
936
937
937
937
941
941
943
943
942
939
937
937
938
938
939
935
933
929
928
934
947
966
990
1024
1063
1105
1148
1181
1192
1177
1135
1078
1018
968
939
930
937
950
961
965
967
965
960
955
952
947
943
944
943
944
943
945
946
946
946
943
943
943
940
941
939
941
940
945
946
945
945
947
946
945
944
944
944
943
945
947
948
950
949
950
949
948
947
946
945
944
946
947
949
950
951
951
951
949
948
947
947
948
949
949
951
952
954
953
950
950
950
949
949
948
948
950
952
952
953
952
953
952
950
949
950
951
953
955
957
960
961
962
964
965
965
967
966
970
968
973
974
975
975
975
971
970
968
967
967
964
965
964
964
964
963
963
962
958
956
954
953
953
953
954
956
954
955
953
951
949
949
948
944
947
948
948
947
950
948
950
948
947
944
944
943
947
945
946
946
949
947
948
945
944
942
941
942
941
941
943
944
946
946
946
946
945
944
944
944
945
947
951
954
955
956
958
957
956
954
956
957
959
963
966
968
968
965
960
957
955
951
951
952
949
951
952
951
952
949
946
943
939
937
936
932
935
936
937
939
940
939
940
940
938
936
938
935
936
935
935
932
928
926
927
936
950
975
1007
1048
1091
1139
1175
1187
1171
1129
1072
1014
968
941
931
937
946
959
965
964
963
962
958
953
949
946
946
945
943
943
944
943
944
947
945
944
942
940
940
939
938
940
943
944
946
947
949
947
945
944
943
943
943
945
947
949
951
951
951
952
948
947
947
946
946
948
950
949
952
953
953
951
950
948
949
949
946
947
948
950
951
951
951
951
950
948
949
948
949
949
949
952
955
956
957
956
955
954
954
954
954
957
959
961
966
968
967
969
969
970
970
971
971
972
972
970
973
972
972
968
967
962
962
958
958
958
956
956
957
959
959
957
954
954
951
950
950
949
950
951
953
951
953
948
947
947
945
944
943
943
945
946
948
947
948
946
944
944
942
943
942
944
944
944
946
947
946
946
945
943
941
941
940
939
941
940
941
942
941
943
945
944
943
943
943
947
947
949
951
953
955
955
956
957
958
960
962
962
958
956
955
954
953
952
951
948
947
947
946
946
943
944
943
940
939
937
935
934
935
935
934
935
936
937
937
937
935
936
934
932
933
932
929
924
923
922
931
941
964
992
1026
1070
1116
1162
1195
1203
1179
1132
1072
1012
968
943
937
941
950
956
958
960
959
957
955
951
947
943
943
940
940
940
939
943
941
943
945
944
944
944
941
939
940
939
941
940
944
944
946
946
948
949
946
945
943
942
942
942
942
946
947
949
948
950
947
946
946
943
942
944
944
946
948
949
949
947
948
946
946
945
944
945
944
948
951
951
952
951
950
949
948
947
947
947
950
952
952
957
958
959
960
962
961
961
961
963
965
965
969
970
971
971
968
966
965
963
962
961
961
961
960
960
959
959
956
953
951
950
948
948
949
950
949
948
948
947
947
947
945
944
941
942
942
941
944
945
944
942
942
940
940
939
937
938
940
940
940
941
941
941
940
938
937
937
936
938
937
940
941
943
941
941
941
938
937
935
935
938
939
942
945
946
949
949
948
949
949
949
946
948
952
956
959
961
961
962
958
953
950
947
945
948
947
949
949
951
948
948
945
942
938
934
929
928
931
929
931
933
935
935
933
932
928
926
928
930
934
934
937
934
934
928
923
918
918
925
941
969
1005
1049
1098
1147
1189
1212
1205
1167
1106
1041
985
949
933
934
943
954
960
960
957
954
950
945
943
942
942
940
944
944
944
943
942
941
940
937
935
936
939
942
943
945
946
945
942
942
938
939
939
942
941
941
943
945
947
948
944
946
945
945
943
947
947
950
949
949
950
949
947
948
947
947
947
947
949
949
949
950
951
951
947
949
947
948
947
948
947
950
952
953
953
952
950
950
946
948
950
951
955
959
961
962
963
965
967
966
967
967
966
966
967
967
968
968
970
967
966
963
960
958
957
956
957
957
958
960
958
957
954
954
953
948
950
950
950
952
954
954
953
954
950
950
948
948
945
948
948
950
949
950
951
950
949
945
945
946
943
944
945
946
948
946
944
946
945
944
942
942
939
941
943
945
946
947
948
948
947
947
947
947
948
950
953
956
957
957
958
958
960
960
962
964
965
963
961
960
956
954
954
954
954
951
950
947
947
946
946
944
943
943
942
939
935
935
934
933
933
935
935
935
939
940
940
941
939
938
937
936
931
928
923
920
921
933
949
972
997
1032
1074
1117
1158
1188
1192
1171
1128
1070
1012
965
936
933
939
947
957
960
960
960
959
956
954
950
948
944
943
943
944
942
942
943
945
948
946
946
942
943
941
939
940
942
943
945
947
946
946
948
946
945
943
942
943
946
946
947
950
952
952
952
952
950
950
950
948
948
949
951
952
952
954
953
952
951
951
949
951
950
950
952
954
956
954
955
952
953
952
951
952
952
953
952
953
956
956
956
955
955
954
954
954
957
958
961
963
966
968
967
970
970
969
969
969
970
970
971
973
973
972
971
970
967
965
964
963
960
963
963
963
962
962
961
959
956
957
954
954
952
954
955
955
955
956
956
954
953
950
949
949
950
949
953
952
954
954
953
952
951
949
948
947
947
950
948
950
949
949
950
949
948
946
944
944
945
945
946
950
952
954
956
956
956
957
957
955
958
958
960
963
964
966
969
968
966
961
957
955
954
951
954
955
956
954
954
950
948
944
941
937
936
935
937
937
938
941
939
940
938
937
937
936
936
936
939
940
942
941
938
933
927
923
928
938
958
986
1023
1062
1106
1150
1184
1195
1177
1136
1078
1020
972
943
937
944
956
967
972
972
967
960
951
947
946
945
944
945
947
947
947
944
945
942
941
941
943
944
946
946
946
946
946
946
946
943
945
943
944
946
947
949
951
950
948
949
946
945
946
946
944
948
949
952
951
954
949
950
949
949
950
949
949
949
950
951
953
953
956
957
952
949
947
948
949
949
951
954
956
955
956
954
953
951
950
949
950
953
953
955
957
959
959
962
961
961
960
961
964
968
970
972
974
974
975
972
973
972
968
967
966
966
967
965
963
963
962
959
959
957
954
950
951
951
953
954
954
955
954
953
950
948
947
946
948
949
948
949
951
950
950
951
950
949
948
944
945
945
945
950
950
949
951
950
947
948
946
944
945
944
946
947
947
949
948
947
945
945
944
944
943
944
947
948
950
951
953
954
954
953
953
953
955
957
957
959
963
965
968
970
969
966
962
958
954
951
953
954
955
956
955
952
952
948
945
943
942
939
937
940
940
941
941
941
940
938
938
938
939
939
942
943
942
944
943
940
935
931
926
926
936
955
981
1014
1057
1100
1146
1180
1191
1173
1127
1065
1006
961
939
936
946
959
968
972
970
964
957
953
946
948
947
948
949
950
949
948
947
945
941
944
942
943
944
947
947
948
948
949
947
943
943
944
946
946
947
950
951
952
952
951
951
948
949
949
948
948
951
951
951
952
953
954
951
951
951
951
950
951
953
954
956
956
957
955
954
953
952
952
954
954
956
957
958
959
960
957
956
954
955
953
953
955
958
960
962
962
964
967
966
965
967
968
969
972
973
976
977
978
980
979
979
976
975
973
971
972
971
972
971
970
971
968
966
964
961
962
960
961
961
961
961
962
961
960
958
957
956
956
954
957
956
957
959
959
957
955
954
952
951
951
952
953
954
954
955
955
954
955
953
951
952
951
949
951
952
952
953
952
953
952
953
952
949
948
946
949
950
951
951
953
953
951
953
950
951
951
953
957
959
963
962
963
966
964
963
963
964
966
971
970
971
971
970
968
966
961
960
959
957
956
955
954
956
958
957
954
952
948
944
943
940
940
939
941
940
945
944
946
946
946
944
942
941
938
939
940
941
940
936
932
934
939
951
971
996
1031
1072
1116
1156
1182
1185
1155
1109
1053
998
962
941
941
949
961
968
971
970
967
962
957
951
949
948
948
947
949
949
951
949
951
949
950
948
946
946
943
943
946
946
947
947
949
950
949
951
949
950
948
949
952
950
950
953
954
954
955
953
951
951
951
952
952
955
955
956
955
956
957
955
953
952
952
951
952
953
956
957
955
957
956
954
955
954
953
952
955
956
957
959
958
959
960
961
958
959
960
962
967
968
971
974
977
977
976
977
977
977
975
975
975
975
975
973
973
971
970
966
966
962
960
958
960
958
957
961
960
961
960
958
955
954
955
954
954
954
954
956
954
956
955
953
949
951
948
949
948
949
948
950
951
951
952
949
948
948
947
946
945
947
949
950
950
951
949
950
946
946
945
946
946
949
950
952
952
954
956
955
956
956
955
956
957
958
962
961
967
969
970
970
967
963
954
953
952
954
953
957
959
959
958
952
951
948
945
941
940
941
940
941
941
943
943
942
941
939
938
937
938
939
942
944
945
944
941
936
930
926
927
936
955
981
1016
1058
1104
1153
1189
1203
1193
1151
1095
1034
983
952
940
946
956
965
969
968
964
960
956
953
950
948
951
949
951
951
949
946
947
945
943
944
944
945
946
949
949
948
950
948
947
945
944
943
945
945
947
949
952
952
952
950
950
948
948
948
949
950
951
952
951
954
952
951
951
950
950
949
951
952
953
954
954
956
954
953
954
952
951
952
952
953
956
955
956
958
957
957
956
955
956
956
956
958
960
961
964
965
964
965
964
964
965
965
967
972
973
975
977
976
974
973
970
969
968
965
965
965
965
965
963
964
962
959
958
956
953
953
954
953
954
956
957
956
954
952
949
946
946
943
945
946
947
948
950
950
951
948
947
945
944
944
945
946
946
946
947
947
945
943
942
943
940
940
941
941
942
942
943
944
942
943
944
941
942
940
943
944
948
950
951
956
954
955
952
951
953
953
958
962
965
966
967
964
958
956
954
951
950
950
950
950
951
951
949
948
945
942
937
933
933
932
934
936
937
938
940
937
937
936
936
934
935
934
935
937
937
934
930
924
921
923
932
949
976
1009
1055
1102
1148
1188
1204
1191
1148
1087
1026
974
942
930
937
946
955
961
962
961
957
951
944
940
938
935
934
936
938
939
940
942
943
942
942
940
938
937
937
938
939
941
943
944
942
943
940
939
938
936
937
942
942
944
946
944
947
944
942
942
943
942
942
944
945
947
948
950
950
947
945
943
942
942
944
945
946
948
947
947
946
945
944
944
944
946
946
948
946
949
950
951
951
951
949
949
949
951
953
954
959
959
962
964
965
966
965
963
966
964
965
967
965
966
965
964
962
958
955
953
953
951
952
952
952
952
952
953
953
950
949
949
946
945
947
946
948
948
950
950
948
947
946
944
943
942
943
943
944
944
944
945
944
944
941
941
938
936
937
937
939
942
942
943
942
941
939
938
937
935
936
938
938
941
941
942
940
939
938
937
939
941
943
947
949
953
953
953
952
951
951
952
954
956
959
960
959
958
954
952
951
949
946
944
943
943
942
945
943
943
942
939
933
931
930
929
928
928
930
930
931
932
934
933
933
931
930
929
928
927
928
925
923
919
916
919
931
945
971
1006
1046
1093
1140
1177
1195
1188
1149
1093
1032
978
941
928
929
939
951
956
958
959
955
952
948
943
939
938
935
937
937
938
938
939
939
941
941
938
938
937
937
937
938
941
941
942
942
945
945
943
943
940
940
940
940
941
944
945
945
944
946
945
944
943
940
938
940
939
942
945
947
947
947
946
945
945
944
944
943
945
947
946
947
948
948
946
946
943
943
944
945
945
945
947
947
949
947
947
946
944
943
945
946
947
951
952
955
958
960
960
960
961
960
962
963
964
964
967
968
967
965
964
963
959
955
953
955
957
956
955
956
956
955
954
952
949
949
947
946
949
948
951
952
949
948
950
946
945
944
942
944
947
946
947
947
949
947
945
944
942
942
942
941
940
941
943
945
946
945
944
943
940
938
938
938
940
941
942
943
941
943
941
942
940
939
939
939
939
943
948
950
952
953
953
954
952
951
951
952
952
956
959
962
965
966
964
960
957
954
950
948
949
950
950
951
950
949
947
944
941
938
937
935
932
933
933
932
934
934
934
933
933
933
932
931
933
936
937
936
938
939
935
930
925
920
921
924
939
961
990
1024
1062
1105
1143
1175
1186
1178
1141
1089
1034
984
950
941
942
952
960
966
966
964
957
951
946
946
945
945
945
944
943
942
939
938
938
938
939
941
942
942
944
944
942
942
941
942
941
941
942
943
945
946
947
947
945
946
944
942
943
941
944
946
948
949
948
949
946
945
945
943
944
944
944
945
946
950
951
951
951
950
949
947
948
947
950
950
951
955
954
953
953
952
951
951
950
950
951
952
953
954
956
957
955
955
955
954
958
959
962
965
967
970
972
972
971
972
968
967
965
967
966
965
964
966
966
964
962
959
959
956
953
956
953
955
955
955
955
954
952
951
949
948
948
947
948
949
949
946
948
948
948
945
945
944
944
944
943
945
946
946
945
945
944
942
940
939
940
939
939
941
944
943
944
944
943
941
940
938
938
938
940
939
942
946
946
950
951
950
949
951
949
951
949
955
956
957
962
964
965
963
960
956
952
951
950
950
950
951
951
949
947
947
943
943
938
937
936
935
936
937
938
939
938
936
935
936
933
934
936
936
939
939
939
939
935
930
925
922
926
938
957
984
1017
1056
1099
1139
1169
1181
1169
1134
1084
1030
984
953
940
942
951
961
964
964
960
957
952
948
944
944
944
943
945
945
944
940
940
937
937
937
940
938
938
942
944
942
942
942
941
939
940
938
939
942
944
944
945
943
945
944
942
942
938
940
940
941
942
946
946
947
946
944
944
944
943
945
946
948
949
950
948
949
948
946
945
945
946
947
945
946
948
950
951
949
949
948
947
946
945
947
947
948
949
951
952
952
954
953
954
954
954
957
959
961
962
963
969
967
966
964
965
963
960
964
963
963
964
963
964
961
962
956
955
953
951
950
948
950
951
951
951
950
948
949
945
944
943
944
944
945
945
945
946
945
944
941
940
940
939
937
940
941
941
943
943
943
942
938
935
936
935
936
935
937
938
941
940
941
940
939
936
937
935
934
935
934
937
938
940
940
941
940
941
941
939
943
944
946
948
949
952
953
953
954
957
959
958
956
953
951
950
949
949
947
945
944
943
942
939
940
938
937
936
934
933
933
932
931
928
927
928
929
930
931
931
935
934
934
935
933
931
927
923
919
920
926
939
958
982
1015
1051
1092
1129
1155
1158
1139
1099
1049
1000
964
941
937
944
950
955
958
955
952
950
945
943
941
940
941
940
939
938
937
935
934
934
936
937
937
939
940
938
937
935
935
934
935
936
938
940
941
941
941
940
941
941
940
937
939
939
940
943
943
945
945
944
943
941
939
940
939
941
943
944
945
946
947
945
944
943
943
942
941
942
945
944
948
947
948
947
945
944
944
944
946
945
948
951
951
953
956
956
956
955
955
958
959
960
964
965
967
968
969
967
965
962
962
960
958
957
958
958
959
958
957
954
952
951
948
947
946
948
947
948
949
948
945
943
943
939
942
940
940
941
943
943
944
944
945
942
942
941
938
939
938
938
939
940
942
942
940
940
938
937
937
937
935
936
936
936
939
936
937
937
935
932
934
933
931
933
934
934
938
937
941
942
942
942
944
942
944
945
947
949
951
953
956
957
956
959
957
953
948
948
945
945
945
944
944
943
942
940
940
938
936
935
934
932
931
931
932
931
930
930
930
927
928
928
929
932
934
934
934
932
930
926
920
917
921
930
949
973
1005
1047
1091
1134
1162
1172
1153
1108
1055
1002
960
938
934
942
951
957
959
956
951
947
940
936
934
934
935
936
935
936
935
932
933
932
932
932
936
935
937
937
937
934
933
933
932
931
932
933
935
937
937
937
938
938
935
934
933
933
935
937
941
942
942
942
944
942
941
941
939
937
938
939
942
941
944
943
943
943
943
942
942
944
941
943
944
944
947
946
948
947
949
947
946
944
944
946
948
952
953
954
956
956
956
957
958
958
958
961
963
966
965
966
966
964
963
961
959
957
955
954
956
956
957
957
956
953
953
950
947
947
944
945
945
947
946
945
945
945
946
943
942
942
939
940
939
941
942
942
942
941
940
939
939
938
938
939
940
940
942
940
942
940
939
937
935
934
933
933
931
932
935
937
934
935
935
934
932
933
933
934
935
935
937
938
939
939
939
939
940
940
941
943
943
945
947
949
951
954
956
955
956
953
950
947
946
946
947
949
949
947
944
942
940
939
938
937
937
935
934
933
932
933
930
930
928
930
927
931
932
931
935
935
936
934
932
931
930
928
925
921
918
915
923
935
955
979
1013
1050
1094
1138
1174
1192
1178
1141
1088
1030
982
950
935
934
942
948
953
954
955
953
951
948
946
944
940
938
937
939
936
935
937
938
939
940
939
939
940
938
935
932
932
933
936
937
940
941
941
942
942
940
938
938
937
938
939
939
943
943
944
943
943
943
941
939
940
940
940
944
946
946
948
946
947
948
944
946
943
945
944
946
947
950
950
950
949
949
948
945
943
944
945
945
948
949
950
951
951
953
953
956
957
960
964
965
968
969
966
968
965
965
963
962
961
961
962
962
965
963
962
961
957
954
953
950
949
951
949
952
951
953
952
951
949
948
945
945
945
944
946
946
946
947
946
945
942
942
939
941
939
938
941
941
943
944
945
943
941
941
938
940
938
941
941
940
942
941
942
943
941
939
939
937
936
937
939
941
941
944
944
947
947
947
947
947
948
948
949
950
954
955
957
963
960
957
955
953
949
946
947
948
950
951
950
950
948
944
944
941
939
937
936
935
934
934
934
935
934
934
932
932
933
933
932
934
934
937
939
938
933
933
929
924
919
916
919
927
943
967
995
1031
1073
1116
1156
1186
1194
1179
1140
1087
1033
987
955
940
940
944
950
955
956
956
955
954
950
951
945
943
941
942
940
940
938
939
939
939
941
942
943
943
942
940
939
938
938
938
941
941
942
945
945
944
942
941
940
940
939
943
944
945
948
946
948
947
946
946
943
945
944
945
944
947
949
950
948
949
950
947
946
946
945
947
947
949
949
947
950
949
949
948
945
945
943
944
945
947
948
949
949
950
949
949
946
950
949
949
953
955
959
960
962
965
964
965
963
963
962
963
965
967
967
967
966
965
964
960
960
958
956
954
956
954
955
958
956
955
954
951
949
948
946
946
947
947
948
950
950
949
947
945
944
943
942
942
943
944
945
946
947
944
944
943
941
940
941
941
941
941
942
943
943
944
941
940
938
938
936
937
939
939
941
942
942
941
940
939
937
938
937
939
943
946
950
950
952
950
949
949
948
949
952
954
958
960
961
961
957
955
950
947
945
942
943
942
943
945
944
944
943
940
936
934
931
929
927
930
930
933
933
934
934
935
935
931
933
931
931
931
932
934
932
931
924
921
920
929
944
967
997
1034
1077
1122
1158
1180
1178
1148
1100
1041
989
952
934
936
946
958
965
968
967
961
954
949
942
939
939
938
940
940
940
941
941
940
939
938
935
936
935
937
937
938
939
942
941
942
940
940
939
940
937
938
938
942
941
944
944
944
944
944
942
940
941
941
944
945
947
948
948
947
948
947
945
946
944
945
945
947
948
948
952
949
949
950
948
946
947
946
949
947
950
951
950
950
947
948
947
946
946
948
947
950
950
952
954
955
957
956
958
957
959
961
962
964
967
966
967
966
966
966
965
964
963
963
964
963
963
963
963
960
957
956
954
951
949
949
950
950
952
952
951
951
949
947
945
944
944
942
944
944
947
948
947
947
945
944
942
941
940
940
942
944
943
943
944
942
941
940
940
939
939
938
937
939
939
941
941
939
943
940
937
936
936
937
938
939
940
941
942
941
941
939
941
942
942
943
946
948
950
951
952
951
953
952
952
956
956
958
959
954
955
952
950
950
947
947
945
945
942
944
942
943
942
940
939
936
933
931
931
931
930
931
933
932
933
935
935
935
934
933
933
933
934
931
929
926
925
922
927
939
958
984
1017
1056
1099
1141
1170
1180
1163
1120
1065
1011
965
938
931
939
950
959
962
963
961
956
952
947
943
941
939
938
939
937
939
939
940
940
942
941
940
939
936
937
936
934
938
937
940
942
942
943
942
941
941
940
939
940
940
941
944
944
945
945
944
944
941
941
941
942
942
946
944
945
946
947
945
944
944
944
942
944
945
946
947
948
948
946
947
945
944
944
943
945
943
946
948
946
948
948
949
947
947
948
947
950
952
955
957
958
962
964
965
963
963
962
962
964
965
964
966
967
965
963
962
959
956
955
953
952
952
951
949
950
950
949
946
943
939
941
942
943
943
943
943
945
945
946
946
943
942
940
938
936
937
937
939
940
942
942
940
940
938
937
936
938
937
939
940
940
941
941
941
938
937
937
935
935
934
934
936
939
937
940
939
936
936
937
937
938
940
942
945
948
949
950
952
952
950
949
951
954
957
961
963
962
961
956
953
950
949
946
947
947
946
947
949
949
947
944
940
936
931
928
928
927
930
931
931
933
932
934
932
932
932
931
930
931
933
935
935
935
932
927
922
925
933
949
973
1006
1047
1094
1139
1176
1192
1181
1142
1087
1031
981
947
932
936
947
955
960
961
960
955
949
944
941
939
938
939
940
940
940
939
939
939
938
935
935
934
935
935
937
938
939
939
940
940
941
939
938
938
937
939
941
941
943
944
943
941
940
938
939
940
941
942
944
945
946
946
944
946
942
944
944
942
943
944
946
946
948
949
949
947
948
945
945
943
943
945
946
949
950
951
954
953
951
951
948
949
948
950
952
954
956
960
958
961
962
960
962
958
958
962
962
963
966
965
964
962
960
958
956
954
952
954
952
951
953
953
948
947
946
945
943
942
944
943
946
945
946
945
944
943
942
941
940
940
939
940
940
940
941
940
941
943
938
938
936
937
935
935
937
937
936
939
939
940
940
938
938
937
934
934
934
935
938
937
937
937
935
935
933
932
932
937
939
942
945
947
949
948
946
946
945
946
948
952
957
958
958
957
953
949
944
942
942
941
940
942
942
943
944
944
941
936
933
929
927
927
924
926
928
929
932
933
933
933
932
931
931
929
931
932
930
929
927
922
922
923
935
951
977
1014
1055
1105
1151
1188
1199
1181
1137
1077
1022
973
944
933
936
944
953
956
957
954
954
948
944
939
938
936
935
936
937
938
938
937
939
937
935
935
934
932
932
932
934
935
939
939
941
941
941
937
938
938
937
937
938
939
941
940
941
940
939
939
938
937
938
939
939
940
943
943
943
943
940
937
937
936
936
938
939
940
942
943
945
946
943
944
940
942
940
942
943
944
948
948
949
948
949
948
947
945
944
945
948
950
953
954
959
960
959
960
959
960
962
963
965
966
966
967
966
962
960
959
956
956
952
952
950
950
949
948
947
947
944
940
941
942
941
941
944
945
946
947
944
944
942
939
938
939
937
936
938
938
940
940
939
939
936
935
935
935
934
935
937
937
938
940
938
936
936
935
933
934
933
932
935
936
935
936
936
936
933
933
933
932
932
935
935
938
941
942
945
945
945
943
941
944
942
944
947
952
956
955
957
955
951
948
945
941
941
941
940
942
943
942
943
941
939
935
933
929
926
926
928
930
929
931
932
931
930
931
928
926
926
929
928
930
932
931
931
928
921
914
912
916
925
945
971
1004
1043
1086
1128
1164
1182
1178
1150
1103
1045
994
957
938
935
941
949
954
957
952
949
945
944
940
940
939
939
939
939
937
935
935
933
931
933
931
933
933
935
936
934
936
933
933
933
931
931
933
935
935
937
937
938
938
940
937
936
937
934
936
939
940
941
943
944
941
942
939
940
939
937
939
940
942
940
941
942
941
940
941
938
938
939
939
941
941
943
945
944
944
943
942
941
940
939
942
943
945
945
947
949
949
948
947
948
949
950
949
954
956
962
963
964
962
961
961
963
960
960
960
962
961
961
960
960
958
956
954
952
950
949
950
950
951
950
951
950
950
947
947
946
943
941
942
944
945
945
946
945
946
943
941
939
938
937
937
939
940
942
943
943
941
940
940
936
938
937
936
939
940
941
941
943
942
939
937
938
936
936
936
936
939
939
941
940
939
936
937
937
938
938
940
942
947
949
950
951
950
950
949
948
950
952
957
960
960
959
956
955
951
950
948
945
944
944
943
944
943
943
944
943
939
936
933
931
930
929
930
932
933
934
935
936
937
934
932
931
932
931
931
933
931
930
925
923
924
933
945
965
995
1028
1069
1111
1150
1180
1186
1169
1130
1074
1019
972
945
935
942
953
960
967
969
966
960
953
947
942
941
939
939
940
942
943
944
942
943
940
939
938
935
937
936
936
940
941
940
942
940
941
940
939
939
938
939
940
941
943
945
945
944
943
943
942
943
942
941
946
946
948
947
948
948
947
945
944
944
943
944
945
947
949
949
950
950
949
948
948
948
947
946
947
949
950
951
951
951
950
949
946
949
949
950
952
956
957
960
962
965
966
965
965
964
965
966
966
968
968
968
967
967
965
962
961
958
956
955
955
956
956
957
957
955
952
952
950
948
948
947
946
949
953
950
950
951
950
947
945
943
941
943
945
944
946
948
946
946
944
943
943
941
940
940
941
943
944
943
943
944
943
942
941
940
940
941
939
942
943
945
944
941
942
942
939
936
940
940
941
941
943
946
948
949
949
950
947
948
949
948
952
953
956
961
963
964
962
961
954
951
950
947
948
949
950
948
949
950
947
946
943
940
938
935
936
936
935
936
936
936
935
934
933
932
933
933
935
936
937
937
938
939
935
933
929
923
921
924
934
952
977
1008
1046
1087
1128
1160
1179
1170
1140
1092
1038
991
957
941
942
950
957
961
961
960
958
953
948
948
946
945
946
945
945
943
941
940
940
938
939
940
942
942
944
943
943
940
939
939
937
939
941
942
944
945
948
947
947
944
945
943
945
945
945
945
949
948
951
949
949
948
949
946
948
947
947
951
948
949
950
949
949
948
948
947
948
948
949
950
952
953
954
954
953
951
951
950
950
950
951
953
955
955
956
958
959
960
960
961
963
962
964
968
969
971
972
972
971
970
967
967
966
965
964
966
966
965
964
963
961
959
954
952
952
954
954
953
954
954
955
953
950
950
948
948
946
944
943
944
945
947
947
947
947
944
943
942
943
941
943
942
945
944
946
944
944
943
941
941
939
939
939
940
941
943
944
943
941
940
939
938
938
938
939
942
943
947
947
948
946
949
948
949
951
951
953
954
958
960
963
965
965
961
955
952
948
949
950
950
951
952
951
949
949
946
942
938
937
934
934
936
937
938
939
939
938
936
936
935
934
934
934
936
937
937
937
933
928
923
925
932
944
966
995
1030
1070
1112
1150
1173
1170
1145
1099
1047
997
961
939
937
945
956
963
966
964
959
955
950
945
943
943
942
943
943
942
943
941
939
937
935
935
934
936
937
939
940
941
943
942
942
940
941
939
940
942
942
945
945
946
947
947
947
945
943
944
944
945
946
946
947
947
949
949
949
949
945
945
946
947
946
947
948
948
949
947
947
946
946
944
946
947
948
950
951
951
951
951
948
946
943
946
946
945
951
952
956
959
963
960
960
960
961
961
963
965
967
967
971
971
968
967
963
965
961
961
960
960
962
961
960
959
958
956
954
951
950
946
946
948
948
948
949
949
948
944
943
941
939
938
937
940
942
943
944
944
943
943
943
939
938
936
936
937
939
941
940
939
939
940
937
937
936
937
936
937
939
939
939
938
939
938
937
935
933
930
932
934
936
939
940
944
946
946
944
944
945
945
946
947
948
953
956
960
960
958
955
952
946
942
941
942
943
946
946
946
945
945
942
939
936
935
931
932
929
930
933
932
932
932
931
929
926
929
928
929
932
933
936
933
933
929
921
918
919
928
944
971
1007
1048
1092
1137
1172
1189
1177
1139
1086
1028
979
942
932
935
946
950
955
953
952
946
945
941
938
938
938
938
940
939
938
938
937
934
934
934
932
933
935
936
937
939
939
940
937
938
936
936
936
938
939
942
942
943
944
941
943
940
940
941
940
942
943
944
945
946
946
945
946
942
941
942
942
942
946
946
948
951
952
949
946
944
944
944
946
947
950
951
951
950
950
951
949
948
949
952
951
953
955
959
960
964
966
966
966
966
965
965
965
965
966
970
968
970
970
967
966
965
963
962
959
959
958
959
958
958
957
957
956
953
949
947
945
946
947
949
950
949
950
948
944
943
942
942
942
943
945
946
946
946
946
945
944
941
941
942
940
940
942
942
944
944
942
941
939
938
938
938
937
938
940
942
943
943
945
945
945
943
941
939
937
940
942
943
944
948
949
949
949
947
947
947
946
950
956
959
962
962
961
957
952
949
947
947
945
947
945
945
947
947
946
943
941
936
934
932
929
928
931
931
933
934
935
934
932
931
932
931
930
932
934
935
936
930
926
920
916
918
929
949
978
1017
1062
1112
1159
1191
1201
1176
1128
1067
1008
963
938
933
941
948
956
959
959
956
950
944
940
938
936
937
938
940
941
940
939
938
938
936
937
935
934
935
936
937
937
938
938
939
938
936
937
935
934
936
939
938
943
944
942
943
943
941
938
937
938
938
940
943
945
944
945
945
943
940
940
939
939
939
943
944
944
945
944
942
940
937
938
937
937
939
942
943
946
946
946
945
944
942
942
943
943
947
949
951
954
955
958
959
960
959
958
956
956
957
957
958
959
960
960
957
953
951
949
947
946
947
947
947
944
947
945
944
942
940
941
939
938
937
938
941
940
942
943
941
942
938
938
938
936
938
939
938
940
944
943
941
940
939
936
938
936
935
937
938
939
939
938
938
937
936
934
934
932
934
933
936
936
936
936
935
935
934
933
934
933
935
938
941
944
945
947
948
947
946
945
945
944
946
950
955
957
957
956
954
949
945
942
942
942
943
942
944
944
945
943
942
940
933
931
931
929
929
931
932
934
934
932
933
931
932
930
930
930
932
933
932
934
933
932
929
922
916
917
926
941
965
996
1032
1074
1117
1155
1180
1182
1159
1116
1060
1005
964
939
934
939
951
957
960
959
957
953
950
945
943
940
940
942
943
941
943
941
939
937
937
936
937
938
939
939
941
942
941
941
939
938
937
936
938
940
941
942
942
945
944
944
943
941
942
942
942
942
943
945
947
946
945
944
942
942
941
941
943
944
946
950
949
949
948
945
945
944
945
942
943
945
946
946
947
948
950
949
945
943
943
944
945
946
950
952
954
956
957
956
956
957
958
959
962
964
965
968
968
969
968
964
963
963
961
959
961
960
961
961
961
959
958
956
953
949
949
948
947
950
948
950
949
949
950
948
945
944
944
943
945
945
946
947
946
947
946
946
946
943
943
940
942
943
944
945
945
944
943
945
940
941
941
939
938
942
943
943
944
944
944
944
940
938
938
938
938
939
940
943
945
946
948
948
950
949
949
949
949
952
953
955
957
961
963
962
961
954
949
946
948
948
947
949
951
948
948
946
944
940
940
936
936
936
934
933
936
934
934
935
934
931
931
930
931
931
932
934
936
935
935
934
931
929
925
921
919
924
932
948
971
998
1030
1068
1104
1138
1164
1171
1160
1127
1080
1030
986
955
941
942
949
956
961
960
959
958
956
949
949
944
941
939
938
938
937
936
938
936
938
939
939
939
940
940
939
937
937
936
937
936
939
942
941
942
941
941
940
938
940
936
938
939
943
944
946
946
945
947
945
943
943
943
943
945
945
947
948
949
949
947
946
945
944
944
944
945
946
948
948
947
946
946
945
945
943
944
945
945
948
949
950
951
950
950
949
948
947
948
950
951
951
956
957
959
962
960
959
960
960
961
962
963
963
963
965
965
966
963
961
959
958
953
953
954
952
952
953
951
950
948
946
943
943
943
942
942
943
944
945
946
946
942
942
940
940
937
937
940
939
942
942
942
941
941
938
937
934
935
937
936
937
939
939
939
940
938
936
935
935
934
934
934
936
937
938
939
938
937
935
934
934
934
937
937
941
942
945
947
947
948
946
945
946
945
947
949
955
957
958
958
954
950
945
943
940
940
940
941
941
942
943
940
939
937
933
928
927
923
925
926
928
930
931
931
932
930
929
929
927
924
926
926
928
928
926
923
921
918
918
929
950
977
1013
1057
1100
1141
1161
1154
1119
1066
1008
959
931
923
928
940
951
958
957
955
949
941
936
934
931
931
931
931
932
932
934
934
934
933
932
931
931
929
928
929
931
933
934
935
934
934
932
933
931
929
933
935
936
937
937
939
940
939
938
936
935
935
937
934
936
939
941
941
943
941
941
939
938
937
938
939
940
941
940
940
943
941
941
940
938
938
939
939
944
943
945
945
945
945
945
942
941
943
944
946
949
950
952
953
953
954
954
955
955
955
957
957
956
958
958
960
957
957
955
953
950
952
948
949
950
948
948
947
944
943
940
937
939
938
935
936
939
940
940
940
940
940
940
938
935
934
934
936
936
936
937
938
937
937
936
932
931
931
930
932
933
931
934
933
934
933
930
929
928
927
928
928
931
933
935
934
935
935
933
932
932
934
934
937
939
943
945
944
945
945
944
945
945
948
950
952
951
950
948
946
942
942
941
939
937
933
936
934
935
936
934
933
930
928
925
923
922
921
921
923
927
930
929
930
928
926
926
924
924
924
924
924
920
918
918
918
929
945
967
997
1037
1081
1128
1164
1181
1172
1137
1085
1026
976
941
926
927
934
943
947
950
948
948
943
939
936
932
930
930
927
927
929
929
931
930
930
931
929
928
929
927
926
929
930
932
934
934
934
935
934
932
929
929
927
926
932
931
934
934
935
934
935
933
934
934
935
934
934
937
937
938
939
939
938
936
935
933
932
933
934
935
938
940
940
941
941
941
939
938
937
936
939
941
943
943
944
943
944
945
944
944
943
945
948
951
955
956
958
959
958
959
957
956
954
956
955
955
956
959
957
956
954
952
949
945
942
942
942
942
945
946
946
944
944
941
940
937
938
937
940
939
941
942
941
942
940
938
935
935
933
934
935
935
937
939
940
940
936
935
932
932
929
931
931
933
934
935
936
937
936
932
932
931
929
931
932
934
937
936
938
939
939
939
939
940
940
937
941
942
945
949
951
954
956
956
954
950
947
946
947
947
948
949
947
946
945
943
940
937
935
931
931
931
931
928
930
929
929
927
930
929
929
929
931
931
931
933
934
934
933
932
929
925
917
914
921
930
950
977
1010
1052
1095
1139
1176
1195
1187
1154
1100
1041
990
953
935
932
940
948
949
950
949
948
946
947
943
942
942
941
939
938
936
933
931
931
931
932
934
935
937
937
938
937
937
933
934
934
933
934
936
939
940
942
942
943
939
937
936
935
933
935
938
938
938
939
938
939
939
937
939
940
939
942
943
945
945
944
940
940
938
939
938
937
940
941
944
944
944
942
942
942
940
939
939
935
938
941
943
946
948
948
948
948
949
949
949
950
955
957
961
962
963
964
964
962
958
960
957
956
957
956
956
954
955
954
951
951
947
945
943
941
942
943
944
944
946
944
943
943
941
938
937
936
938
940
939
940
942
941
939
940
937
936
936
936
936
939
940
940
941
942
940
939
935
935
935
933
935
936
938
936
940
939
936
936
935
933
932
933
934
936
938
936
936
939
939
941
941
942
944
943
946
947
948
950
953
956
957
957
955
952
950
947
948
947
948
948
950
948
945
943
941
941
938
937
935
937
934
933
934
934
932
932
930
930
930
930
929
933
933
935
935
935
935
934
932
933
930
924
918
917
916
922
938
957
985
1018
1057
1096
1139
1169
1180
1164
1123
1067
1012
963
937
926
932
941
950
954
957
956
954
953
949
947
943
941
938
938
937
936
936
938
938
938
938
939
939
939
936
935
934
935
936
939
940
942
943
944
942
943
941
940
941
939
942
942
943
946
945
946
946
943
944
941
940
942
942
943
945
947
946
947
948
946
947
946
944
945
944
944
945
948
948
949
947
947
942
943
943
946
945
947
946
950
950
951
951
948
950
948
948
948
950
951
956
955
959
962
961
964
963
962
962
963
963
965
967
970
969
970
968
965
964
963
961
959
959
959
958
958
956
956
955
953
951
951
949
948
949
949
950
950
951
951
949
949
946
945
941
941
943
943
944
945
947
947
946
946
944
943
943
940
942
943
941
944
944
944
944
942
942
939
940
938
939
940
941
942
944
944
944
943
940
940
939
939
941
944
948
952
954
954
954
954
954
952
953
953
955
959
962
965
965
963
959
957
953
950
950
948
947
947
949
950
949
951
947
943
937
937
935
932
932
934
935
936
939
939
939
938
938
937
936
933
935
938
938
941
941
937
933
928
925
929
942
960
990
1027
1066
1109
1148
1174
1175
1147
1099
1041
986
948
934
935
949
962
969
972
968
962
954
949
943
941
943
943
944
944
945
945
945
944
941
941
940
938
940
942
944
944
942
944
944
943
942
942
939
942
943
943
945
949
948
948
949
949
946
947
945
945
944
947
946
948
948
948
948
947
947
947
945
947
947
949
950
952
952
952
951
950
950
947
948
947
948
949
950
952
953
954
953
952
951
950
951
949
951
953
955
959
961
963
965
966
966
966
965
965
965
969
969
970
970
969
970
965
963
960
960
958
957
956
956
956
957
956
955
953
951
951
949
947
949
950
950
950
951
951
951
949
947
948
945
945
944
946
946
947
945
947
945
947
944
942
942
942
941
942
945
945
946
945
944
942
939
941
941
940
939
941
939
943
944
943
941
940
939
937
938
939
941
942
943
947
949
950
953
952
953
952
951
952
952
955
957
960
964
965
965
963
959
953
949
948
948
949
952
950
951
951
950
948
946
943
942
940
937
936
936
937
935
936
936
936
934
934
934
933
934
935
936
937
939
939
938
937
932
927
923
923
931
948
972
1003
1040
1082
1122
1155
1172
1160
1126
1073
1018
971
942
934
937
948
960
963
962
961
952
951
945
943
942
944
944
944
944
942
940
937
935
935
937
938
940
941
940
943
941
940
940
939
937
936
937
939
941
942
944
944
943
944
943
941
940
939
942
943
944
944
946
946
948
945
945
944
941
943
944
944
944
943
945
947
947
946
947
946
942
943
943
943
945
947
947
948
949
946
947
945
945
944
945
949
949
950
952
953
953
954
954
954
955
956
959
961
964
966
969
968
967
967
965
963
960
959
959
957
958
957
956
953
956
953
950
949
947
945
946
946
947
947
947
947
948
945
942
939
941
940
942
940
940
944
944
943
941
941
938
936
936
936
936
939
939
940
942
943
942
941
941
937
936
934
934
935
938
938
939
940
940
939
937
936
936
936
936
941
943
945
947
948
950
948
950
946
948
948
951
952
957
957
959
958
955
952
948
945
944
942
943
944
943
944
945
944
943
940
937
934
931
929
928
929
930
932
932
932
932
930
929
928
928
927
930
931
934
934
937
935
932
926
922
922
928
941
960
986
1021
1059
1101
1141
1169
1175
1155
1114
1063
1011
970
943
934
941
949
955
959
957
955
950
946
940
938
938
938
937
938
938
936
935
932
933
931
933
934
937
938
939
940
940
940
940
939
935
936
937
936
938
939
942
940
940
944
941
939
939
938
938
937
937
941
942
945
946
948
945
944
943
941
940
943
942
944
946
946
947
948
945
944
944
943
942
945
947
949
950
952
952
952
951
950
949
947
947
947
949
951
956
959
961
962
960
961
961
961
962
965
966
967
971
972
971
973
971
967
966
963
961
958
957
957
957
959
957
957
957
955
953
949
949
948
950
949
949
949
949
952
950
948
947
947
945
945
944
945
945
947
947
947
948
948
945
945
942
942
944
946
944
943
947
947
945
941
939
939
939
940
944
943
943
945
943
945
942
941
939
940
940
942
944
946
951
953
956
955
955
954
952
952
953
958
960
963
964
964
962
960
957
953
953
950
950
948
948
948
949
950
949
947
946
941
937
934
933
932
934
936
937
938
938
939
939
937
936
935
934
934
937
935
936
936
931
926
924
927
935
954
980
1015
1057
1100
1144
1181
1195
1180
1142
1090
1032
987
955
940
941
949
955
961
962
961
957
952
946
941
939
938
938
940
940
942
942
941
942
941
940
939
939
939
940
941
940
941
943
943
943
943
941
939
938
938
937
940
941
944
942
943
943
943
942
942
944
942
944
943
946
948
948
949
950
947
945
945
942
941
942
941
941
942
943
946
943
944
944
943
941
942
942
942
945
947
946
947
947
946
946
946
944
945
947
950
951
954
954
956
956
958
958
959
957
957
961
962
965
963
963
964
963
960
961
959
958
954
954
956
954
956
955
955
954
950
950
947
948
949
947
950
950
951
951
950
948
944
945
943
943
942
943
945
944
947
946
947
948
946
944
945
943
941
942
943
943
945
944
942
941
941
939
940
938
937
937
937
940
940
940
941
940
939
937
935
933
937
938
941
944
946
948
951
950
948
946
946
947
944
950
955
957
960
960
956
954
951
947
946
944
945
946
945
945
945
946
944
941
935
934
933
931
930
929
931
933
937
935
938
936
934
932
932
931
929
932
930
931
928
924
923
927
935
951
977
1009
1049
1095
1137
1167
1182
1169
1130
1074
1017
968
939
926
928
940
948
953
957
956
955
951
946
943
939
935
936
937
940
940
941
940
941
940
940
936
937
936
937
937
937
941
943
943
943
943
943
939
939
940
940
942
942
944
946
946
947
946
945
943
942
941
944
944
944
947
948
948
949
948
948
945
945
944
944
944
944
946
946
945
947
946
945
942
944
942
942
944
944
947
948
951
950
949
947
949
948
949
948
949
953
956
956
959
961
962
961
960
960
961
962
963
964
965
967
968
966
966
964
961
959
956
956
957
956
957
958
958
955
955
952
951
949
948
947
948
948
948
952
951
950
948
947
948
947
945
944
946
948
947
950
949
949
948
946
945
945
944
944
944
945
946
949
948
950
948
947
946
944
943
942
942
945
945
949
948
947
947
945
945
944
943
947
947
950
953
956
957
958
959
955
956
956
954
955
960
963
965
967
965
965
960
954
952
950
951
950
950
950
950
953
951
949
948
947
943
938
936
934
936
937
937
940
940
941
940
941
939
938
938
938
938
940
940
942
941
938
932
928
930
938
952
975
1005
1039
1081
1121
1156
1178
1173
1141
1093
1038
988
952
938
942
952
964
969
973
970
963
957
951
946
943
943
944
947
946
947
946
946
943
943
942
942
942
943
944
946
946
946
946
947
945
945
944
945
944
946
946
948
950
951
952
951
950
948
948
947
947
947
949
950
953
954
953
953
952
952
950
950
947
950
951
952
953
952
954
954
952
950
948
950
949
952
953
953
955
955
955
956
954
954
954
953
952
955
957
959
961
963
967
966
967
967
966
966
965
968
969
972
972
973
972
972
970
968
966
963
962
963
962
962
962
960
960
960
957
955
951
951
950
952
951
952
954
953
954
951
951
950
948
947
946
946
950
950
951
951
951
951
951
946
945
945
945
946
945
945
946
946
948
947
945
944
942
939
940
939
942
942
944
944
945
943
942
941
941
938
939
938
941
941
941
942
943
944
942
945
946
945
948
949
952
951
954
955
956
956
958
959
960
961
958
958
958
955
952
951
952
951
948
947
946
944
943
943
946
943
940
938
936
936
934
931
932
933
932
936
937
937
937
938
937
937
935
935
934
933
932
933
931
929
927
927
932
944
960
982
1010
1047
1085
1121
1153
1170
1160
1129
1082
1026
979
946
934
935
943
956
963
964
963
960
954
949
944
939
936
936
935
937
940
942
941
943
944
941
942
941
939
938
938
940
941
942
943
944
946
947
945
943
942
941
943
942
945
946
947
949
948
948
947
947
946
945
946
946
945
949
949
950
951
951
948
948
946
947
947
948
948
949
950
952
952
951
950
949
950
948
947
950
949
952
951
952
954
954
954
954
952
952
954
956
957
959
962
963
964
967
967
967
966
965
964
964
965
966
967
968
967
967
966
962
962
957
956
955
955
957
955
956
955
956
954
950
949
949
945
945
949
950
951
952
951
952
950
948
947
946
946
947
946
948
948
949
950
949
948
945
944
941
942
942
940
941
941
943
943
942
942
941
942
940
939
939
940
941
944
945
947
946
945
944
944
947
947
948
952
953
955
957
957
958
958
958
962
963
964
963
962
958
956
955
954
952
952
951
950
948
947
948
947
946
946
941
941
936
937
935
935
936
936
937
938
940
940
942
941
940
938
937
936
935
932
930
927
927
931
943
961
986
1015
1052
1093
1135
1170
1187
1179
1145
1097
1043
995
962
943
941
945
953
958
959
960
959
956
954
950
948
946
943
941
940
938
938
939
940
941
942
942
942
941
941
940
939
938
938
938
940
941
945
945
945
945
942
943
941
939
940
943
944
947
947
947
945
946
943
944
944
944
946
945
945
947
946
947
946
946
946
944
946
944
945
946
948
949
951
950
949
948
947
948
946
947
946
947
949
949
948
950
951
953
953
952
953
951
955
957
960
964
964
967
967
966
967
967
965
965
966
967
966
968
968
970
966
963
961
958
957
953
951
951
951
952
953
955
956
955
951
948
948
946
945
946
948
949
951
951
951
949
946
944
942
943
943
944
945
947
948
949
948
946
945
942
943
941
943
944
944
944
945
943
941
942
939
940
938
938
937
937
941
941
943
942
944
940
939
939
938
940
942
943
945
948
950
951
953
952
950
948
951
952
957
961
962
961
959
954
950
950
947
946
947
945
946
946
947
949
947
946
942
938
932
932
930
930
931
934
937
937
939
939
938
936
935
933
933
932
933
934
932
933
929
927
928
937
951
972
1003
1042
1086
1132
1174
1199
1192
1159
1104
1043
989
951
934
933
940
950
956
959
959
957
954
949
943
941
938
939
937
935
939
940
940
941
942
942
942
939
935
935
935
937
940
942
943
945
946
943
943
942
941
939
939
939
939
941
944
945
945
946
945
944
943
941
942
944
947
946
945
945
943
942
942
942
943
943
945
945
944
946
943
944
945
945
946
946
946
945
945
946
947
948
949
950
950
951
951
952
953
954
955
958
962
963
963
967
967
966
966
965
965
962
961
962
962
961
961
963
960
958
954
954
952
949
949
949
949
948
950
950
949
948
947
942
940
941
943
942
943
945
946
946
945
944
944
940
940
938
939
938
939
939
941
941
941
940
939
939
939
938
937
938
939
939
939
940
941
940
939
936
935
932
932
935
937
939
940
940
941
943
942
943
945
945
945
946
947
948
950
952
953
953
955
956
953
950
947
945
947
947
949
948
947
944
943
943
942
938
937
936
935
933
933
934
934
932
931
930
930
928
929
931
931
933
932
934
936
937
935
933
931
927
922
918
917
927
938
959
986
1020
1056
1096
1135
1165
1177
1165
1128
1076
1021
974
941
929
932
940
947
954
956
953
952
949
947
945
944
940
941
940
939
937
938
938
939
939
940
940
940
940
939
937
937
935
937
939
940
941
943
943
942
944
942
940
940
941
941
942
944
947
948
947
948
948
946
944
944
942
942
945
946
948
950
949
950
949
948
948
946
945
946
946
947
949
950
953
950
949
948
947
945
944
943
944
947
947
949
951
951
951
951
949
950
953
952
955
956
961
963
963
965
964
963
963
963
963
962
964
964
965
966
966
965
963
958
956
954
954
952
953
954
954
955
954
953
954
952
950
949
946
948
948
948
948
949
949
949
949
946
945
944
942
944
944
946
947
947
947
948
946
946
943
942
941
940
941
941
942
944
943
944
942
943
941
940
940
938
941
941
943
944
942
944
942
941
940
939
941
942
944
948
948
953
953
955
955
954
954
954
952
955
959
959
965
966
963
962
957
953
952
948
947
948
948
949
949
949
947
948
945
941
938
935
934
933
934
935
936
938
936
938
938
938
937
936
934
935
937
936
939
938
936
932
928
926
929
939
956
981
1012
1048
1089
1129
1158
1173
1162
1129
1080
1025
978
948
938
941
952
963
968
970
968
961
955
949
943
942
942
944
944
945
945
944
944
943
940
939
939
938
940
941
943
943
944
944
944
944
943
942
942
940
944
945
945
948
950
951
948
949
947
945
944
945
947
949
949
950
952
950
950
950
947
946
946
947
947
948
949
953
952
952
953
952
949
950
949
945
948
950
953
953
954
953
951
951
950
951
951
948
950
953
955
960
960
962
961
961
961
960
962
962
964
967
970
973
972
974
973
971
971
966
966
964
965
965
966
966
964
961
961
959
957
955
953
952
953
952
955
953
954
955
952
951
949
949
946
945
946
948
951
951
950
952
950
948
948
945
944
945
948
947
949
950
951
949
948
948
944
944
943
944
944
945
946
946
945
945
944
943
942
939
940
940
943
943
944
945
949
950
951
949
950
951
950
952
953
955
958
960
961
963
964
966
964
964
961
960
957
954
955
954
955
955
955
952
952
949
948
945
945
944
944
941
940
939
938
940
936
939
937
937
939
940
941
942
944
944
945
941
939
936
933
929
926
931
940
956
978
1008
1044
1083
1123
1154
1166
1156
1116
1066
1017
971
945
939
945
955
962
965
965
963
958
955
951
950
950
950
947
948
945
945
945
943
943
945
945
945
947
948
947
945
944
945
943
944
947
947
947
949
949
951
950
948
946
946
945
945
946
947
949
948
950
952
950
950
948
947
948
946
948
950
950
952
954
954
953
952
951
950
949
950
948
950
952
952
953
951
952
953
952
950
951
950
952
953
954
957
956
959
957
956
956
957
957
957
960
963
966
968
967
968
967
970
968
968
968
967
967
966
968
966
966
965
964
962
957
956
955
953
953
953
953
953
954
953
953
952
949
950
950
947
950
948
950
952
952
952
949
948
946
944
945
945
945
946
948
947
949
948
947
947
946
943
944
943
944
946
946
946
947
946
946
943
941
941
941
940
940
942
944
947
944
945
944
942
941
941
942
944
947
949
952
955
952
956
957
955
955
954
956
957
960
960
960
958
959
956
953
951
951
949
950
947
949
948
948
948
948
946
942
939
935
933
931
932
935
936
939
941
941
941
939
938
938
937
937
936
937
937
937
933
929
930
936
949
965
990
1025
1067
1112
1153
1180
1183
1155
1111
1054
1003
963
943
939
947
955
961
965
964
963
960
956
951
948
945
941
941
940
943
943
946
946
946
946
945
944
943
941
942
943
946
946
947
948
948
948
946
945
942
941
943
943
943
946
944
945
947
947
945
945
945
947
944
945
943
946
946
950
952
954
953
952
951
950
948
948
949
949
949
951
950
951
950
951
949
949
947
947
949
953
955
957
960
960
961
959
959
956
957
959
962
965
966
969
972
973
970
970
968
965
963
962
962
963
963
963
962
961
958
956
955
952
953
951
950
949
949
949
950
951
948
949
950
950
947
946
947
946
947
947
946
947
946
944
944
944
942
943
943
944
946
945
944
944
943
942
941
938
938
937
938
938
940
941
942
941
941
939
938
938
937
938
935
940
942
943
942
942
942
941
942
945
943
946
946
948
951
951
952
952
954
957
958
958
956
956
955
950
953
951
951
953
951
950
947
946
944
943
944
945
946
944
941
940
938
935
932
933
934
934
936
937
935
936
935
935
936
935
933
934
934
933
931
928
925
926
932
948
969
998
1036
1078
1125
1166
1190
1188
1157
1105
1047
994
955
937
936
943
950
955
956
958
957
952
951
947
942
941
940
937
937
937
939
937
941
941
941
941
940
941
938
938
937
936
938
939
941
944
946
946
945
944
942
941
938
939
941
940
941
944
944
945
946
944
944
944
945
943
944
942
946
945
949
949
950
948
946
946
944
946
944
944
946
946
944
947
947
947
948
948
948
947
949
947
947
949
951
951
952
952
953
954
956
960
961
962
965
966
968
969
970
967
966
965
965
965
968
966
966
965
963
961
958
955
953
953
952
952
952
952
953
951
950
950
951
946
945
943
941
944
947
949
951
951
950
952
949
946
946
947
945
944
944
944
946
948
948
948
948
947
944
944
943
942
944
944
946
945
946
945
943
943
942
940
940
940
939
942
944
945
945
944
943
943
944
944
944
947
950
951
954
956
956
956
956
956
955
956
960
961
960
962
960
957
954
954
954
953
952
951
950
949
948
949
948
949
947
945
943
938
937
936
936
937
938
940
940
942
943
942
943
940
941
938
938
937
936
935
933
932
929
928
934
948
968
993
1028
1065
1108
1146
1174
1184
1170
1130
1079
1025
981
950
937
938
946
956
962
964
964
959
956
952
948
946
944
943
942
946
947
948
949
948
947
944
945
943
943
943
944
945
948
947
949
950
947
946
945
945
945
943
945
948
950
952
952
953
952
951
951
951
949
951
951
953
955
954
956
955
955
953
952
952
951
952
953
954
956
955
955
957
956
954
952
952
952
954
955
955
959
960
959
961
960
958
955
955
955
956
956
960
962
965
967
969
970
970
968
970
972
972
974
975
977
977
976
975
975
972
972
970
968
968
968
967
967
968
966
966
964
962
960
959
957
959
959
957
959
959
959
958
958
957
955
953
953
953
954
956
956
956
956
954
952
951
952
949
947
951
951
952
952
953
954
952
950
948
947
949
948
948
950
950
952
953
952
951
953
953
950
951
949
952
954
958
962
961
963
963
963
963
961
962
965
966
967
970
969
968
967
963
962
957
957
954
952
952
951
953
954
953
953
953
950
945
944
943
940
941
940
943
944
946
947
946
946
945
945
945
941
944
944
944
945
942
940
938
939
947
962
983
1010
1045
1083
1120
1152
1170
1166
1138
1097
1047
1000
966
950
949
957
967
974
977
975
972
965
960
955
951
950
949
950
953
950
953
952
951
951
950
946
948
946
947
948
950
952
954
953
952
952
949
951
947
949
949
948
952
953
955
956
956
955
954
952
951
951
952
952
954
955
956
960
960
959
958
955
954
955
955
957
959
959
959
960
959
959
960
956
956
956
955
958
958
960
961
961
962
960
960
958
959
957
959
960
961
962
964
967
966
965
967
968
967
969
969
970
971
974
974
976
978
977
975
973
971
971
969
968
967
967
967
967
965
964
962
959
958
958
956
957
957
959
960
959
960
957
956
955
954
952
954
955
953
955
957
955
957
955
954
952
952
952
951
953
954
955
955
957
955
954
954
952
951
951
950
950
952
953
954
952
955
955
953
949
946
946
944
947
948
950
952
951
953
950
950
950
949
951
951
955
955
960
961
962
964
965
963
961
962
961
964
967
969
971
972
968
966
962
959
958
954
956
955
955
955
956
956
955
954
951
949
944
941
939
940
942
943
944
945
946
947
945
943
942
943
943
940
943
944
943
943
940
938
937
944
957
976
1005
1040
1081
1122
1155
1171
1164
1136
1085
1031
984
954
942
943
955
965
970
973
970
967
961
957
950
948
946
949
949
951
953
953
954
953
952
951
949
948
947
947
948
949
950
950
953
952
954
953
950
950
949
948
950
952
954
955
957
956
955
953
953
951
950
951
952
952
954
956
956
957
956
954
953
955
953
955
956
957
956
959
960
961
959
957
956
955
955
954
957
958
960
961
960
961
961
959
957
957
958
958
957
961
962
964
966
969
969
968
967
968
968
971
972
975
977
978
979
977
977
974
972
972
970
970
969
971
970
970
968
968
966
962
960
957
958
956
958
958
958
958
957
958
958
954
955
952
952
952
952
953
952
953
956
954
954
953
952
950
948
947
949
951
951
953
953
953
952
951
948
949
945
946
947
949
951
950
950
952
950
949
948
946
946
945
948
948
949
950
950
952
952
952
953
954
953
954
957
959
960
961
963
963
962
964
965
966
966
967
963
963
960
960
958
958
957
956
954
950
948
947
950
950
948
947
946
943
941
940
938
939
937
937
938
940
941
942
943
943
943
941
939
939
941
940
936
936
934
935
938
949
966
988
1018
1054
1091
1128
1155
1165
1152
1117
1068
1018
976
951
942
944
954
962
967
968
968
965
962
958
953
950
949
947
944
944
944
944
945
947
946
948
945
944
943
943
942
943
944
947
946
949
949
949
948
945
943
942
944
943
946
946
949
951
950
951
952
950
946
948
947
946
948
949
951
952
954
954
954
952
951
950
949
949
950
951
953
954
956
957
956
955
953
952
951
952
953
954
955
957
958
959
958
957
958
959
958
961
963
967
968
971
972
973
975
973
971
968
969
970
968
968
967
970
970
967
968
966
961
960
957
957
956
958
958
957
958
954
955
951
951
949
949
945
947
948
948
947
951
950
952
949
948
946
944
943
945
945
947
947
946
946
947
946
944
942
941
941
941
943
944
944
945
944
947
944
943
941
941
938
940
940
941
945
945
946
946
944
944
943
943
943
943
945
949
953
952
956
955
953
954
953
955
954
956
959
961
960
959
958
954
953
950
947
948
946
947
948
948
947
949
946
946
941
939
936
934
930
932
932
935
938
937
939
939
939
939
936
937
936
935
938
937
940
937
934
931
933
939
953
976
1005
1041
1083
1121
1152
1167
1157
1122
1076
1027
981
955
943
945
951
958
960
960
959
958
952
949
945
944
942
942
943
943
943
944
945
943
943
944
940
941
939
940
942
943
944
944
943
941
939
941
939
940
939
940
941
943
943
945
945
945
942
941
940
940
940
943
946
946
949
947
950
947
948
947
945
944
944
946
948
949
950
951
950
949
947
948
948
946
947
946
948
947
951
953
955
953
952
950
951
952
954
953
954
958
962
963
964
965
965
965
965
965
966
967
967
968
966
966
967
965
961
959
959
958
957
958
957
955
957
956
955
953
952
950
949
949
947
948
951
950
951
951
951
950
947
946
945
943
942
944
945
944
946
947
947
947
943
943
940
941
940
940
941
942
945
945
946
947
945
943
941
941
941
939
938
941
941
943
944
943
942
941
942
942
943
945
946
949
954
953
954
954
953
951
951
951
952
956
957
960
959
958
959
955
953
950
948
947
948
947
948
947
946
947
945
942
940
935
933
933
933
934
936
935
936
938
935
936
933
934
932
932
934
933
936
935
931
929
925
927
933
949
968
1001
1038
1082
1126
1162
1179
1172
1138
1085
1030
982
951
937
937
944
952
955
958
958
955
952
946
942
939
939
938
939
938
940
941
941
939
940
939
939
937
937
937
939
941
941
942
941
941
941
940
940
939
939
938
939
941
941
942
943
943
941
943
942
942
943
941
942
939
941
945
945
947
946
949
947
944
944
944
943
943
947
947
943
946
947
948
946
943
944
943
944
942
945
947
947
948
950
946
946
947
948
950
949
951
954
956
958
959
958
961
960
960
961
962
961
961
962
963
963
962
962
961
960
958
958
956
955
956
957
957
955
955
954
952
951
949
946
946
946
948
947
947
949
948
948
946
944
941
943
941
943
944
944
945
946
944
944
942
941
941
939
936
937
938
940
940
941
944
943
943
941
940
938
939
939
938
940
941
943
942
942
940
939
937
937
937
940
941
943
946
949
951
951
951
949
948
947
949
950
952
955
957
958
960
957
954
952
948
946
945
945
946
946
948
945
944
944
943
941
936
932
931
929
934
935
937
938
938
936
936
935
934
933
934
933
934
936
935
936
936
933
927
923
922
927
940
961
987
1022
1059
1098
1137
1163
1170
1150
1109
1056
1003
964
940
935
941
950
958
961
960
959
954
949
946
941
942
941
941
942
943
943
942
940
938
937
935
937
938
940
941
943
943
943
942
941
939
938
938
938
941
942
942
945
943
944
943
943
941
942
942
940
943
945
945
948
948
948
946
944
943
942
942
942
942
944
947
947
949
947
949
945
944
943
943
943
944
945
947
948
948
948
946
947
944
945
942
944
946
946
949
950
950
953
953
952
953
953
954
955
956
959
961
963
966
966
967
965
963
963
961
961
960
960
961
961
962
960
958
957
955
953
952
950
951
952
952
952
952
952
951
949
947
949
947
947
947
948
949
951
950
950
950
947
947
946
945
945
944
947
948
948
947
948
947
945
943
942
942
941
944
944
945
945
945
945
943
941
941
941
941
941
942
944
945
946
946
948
948
947
948
950
949
953
953
955
957
958
961
960
961
961
962
965
963
960
959
958
957
956
953
953
953
951
951
948
948
944
945
946
946
946
942
941
939
938
938
937
937
937
938
939
940
943
944
943
942
940
940
939
940
936
936
934
932
932
935
947
959
978
1002
1032
1066
1100
1136
1161
1165
1148
1111
1061
1011
972
949
943
948
958
966
972
970
970
964
959
954
950
946
945
946
945
947
947
946
950
947
948
947
945
946
946
945
944
946
947
950
951
951
951
951
948
948
947
947
946
947
949
951
954
953
954
956
953
953
950
950
952
953
953
953
955
956
955
955
953
949
949
952
949
952
955
954
957
958
959
958
956
954
956
955
955
956
955
958
957
958
959
959
959
957
958
956
956
959
960
964
967
969
972
972
972
971
970
970
969
970
971
973
974
972
972
972
967
966
965
962
960
960
962
960
961
961
960
959
957
955
954
952
952
951
953
952
953
953
954
953
951
950
947
947
947
948
948
950
951
951
951
951
950
949
948
947
945
947
947
949
950
950
950
949
948
945
947
945
944
947
946
947
947
947
949
949
947
946
948
945
945
948
953
955
957
960
959
959
959
960
958
958
959
961
967
969
972
969
966
963
959
957
955
954
952
954
955
956
954
955
955
952
949
945
941
942
938
939
940
942
944
944
943
945
943
942
938
939
939
942
943
942
942
938
936
934
935
942
958
980
1008
1042
1082
1119
1152
1168
1159
1128
1079
1027
983
953
941
946
957
966
971
973
973
965
958
953
950
946
946
947
947
949
951
951
950
949
949
949
948
947
945
948
948
949
949
950
952
952
950
949
948
946
946
949
950
953
952
952
955
955
954
954
953
953
952
954
955
955
959
957
958
957
956
954
954
955
954
956
955
959
958
957
959
957
958
956
956
956
954
956
957
959
960
960
961
961
959
959
957
956
956
959
960
961
965
967
969
970
970
972
968
969
971
972
974
975
979
978
977
975
976
974
972
971
969
968
970
968
969
969
967
966
965
963
960
961
958
958
960
959
961
960
960
959
956
955
954
953
953
951
954
952
952
953
953
951
951
949
949
950
948
947
950
950
954
953
953
952
950
949
947
948
947
948
949
950
952
953
952
949
947
946
946
948
947
949
952
954
955
957
958
960
958
957
956
957
958
960
962
965
968
967
965
963
956
955
954
953
950
951
953
954
954
955
954
950
948
943
939
938
938
940
941
943
944
946
945
944
943
944
941
941
942
941
941
940
938
935
935
942
953
971
997
1031
1068
1107
1143
1165
1164
1139
1095
1046
999
962
947
945
952
961
966
970
969
966
959
954
947
947
943
943
944
943
945
944
946
948
949
947
948
946
944
945
944
943
944
945
946
947
948
949
947
947
947
946
945
948
949
949
950
951
950
952
950
950
949
948
945
946
949
949
954
955
954
954
951
950
949
948
946
948
950
950
948
949
951
952
953
953
950
949
949
951
951
951
953
954
953
956
955
955
954
954
956
957
959
962
965
967
968
970
969
968
968
966
966
967
968
970
970
969
971
968
966
964
960
960
958
957
958
959
958
958
956
955
953
952
948
948
947
948
949
949
947
947
948
945
944
943
944
946
943
946
945
948
946
948
949
947
945
945
942
944
941
942
943
943
944
945
944
944
944
940
938
935
936
937
940
940
943
943
944
943
943
941
938
939
939
940
943
946
950
951
951
952
950
949
947
949
953
957
960
962
960
958
954
953
951
949
949
950
949
948
946
946
945
946
944
942
938
936
932
932
931
932
933
937
936
938
938
938
937
936
934
934
933
933
932
930
930
924
924
933
944
963
991
1026
1067
1109
1148
1173
1171
1144
1095
1041
990
956
938
937
943
953
958
959
958
957
951
947
944
942
939
939
940
940
941
943
943
943
943
942
940
941
938
939
937
938
940
941
942
943
943
943
943
941
940
938
938
938
941
941
944
944
947
947
947
947
944
945
942
940
944
946
948
947
948
948
947
946
944
943
941
944
945
949
949
950
950
949
947
947
947
945
947
948
948
950
951
952
954
954
955
955
956
957
957
961
962
963
966
967
967
968
965
964
965
964
964
964
963
962
963
962
963
963
961
959
954
951
950
948
950
949
950
952
951
950
949
949
948
947
945
945
947
950
951
950
951
948
949
946
944
944
942
940
940
941
938
941
944
946
946
944
943
942
943
941
940
941
943
941
942
941
940
939
938
937
937
936
938
940
942
944
944
944
944
945
943
944
944
946
946
950
950
950
952
952
954
955
957
957
956
955
955
953
953
952
953
952
950
950
946
947
946
945
945
943
940
939
938
937
934
933
933
932
932
933
936
935
934
937
938
938
938
939
935
934
933
930
928
925
926
930
943
959
984
1012
1048
1091
1131
1164
1179
1169
1138
1087
1036
990
957
942
941
945
950
952
956
956
954
952
949
946
942
940
938
938
937
937
938
940
939
938
940
937
936
937
935
935
935
935
935
938
938
937
940
940
939
940
939
937
938
939
941
941
942
943
945
945
944
943
942
939
939
941
942
944
944
945
945
946
944
943
941
939
941
942
942
943
944
947
945
946
945
943
942
942
941
942
944
945
946
947
947
948
948
949
948
949
950
952
954
957
959
961
963
962
962
961
961
960
959
957
956
959
957
956
957
955
955
953
952
949
948
947
948
948
950
949
949
950
948
948
947
945
944
944
946
948
947
947
948
948
947
945
944
943
942
942
942
943
945
946
946
946
944
941
941
939
939
940
938
941
943
943
944
942
942
940
938
937
934
935
936
938
940
942
946
947
947
948
948
949
947
950
952
953
952
955
956
959
960
958
956
955
952
950
950
947
950
950
950
949
947
946
943
942
940
938
937
938
936
936
934
933
933
932
933
934
931
934
935
936
938
938
940
940
937
936
933
927
924
925
935
947
966
993
1024
1060
1098
1129
1151
1154
1133
1094
1047
1000
964
947
944
948
957
960
963
960
955
951
948
946
945
944
942
944
942
940
939
938
939
937
937
939
943
943
943
943
940
940
939
940
939
940
939
942
943
946
943
943
943
943
943
942
940
943
942
943
945
946
949
949
946
947
944
942
943
944
945
944
947
949
948
949
949
946
946
946
946
945
948
949
953
951
951
951
952
950
948
948
947
946
947
949
950
951
951
951
949
949
949
952
952
953
955
957
960
962
965
965
964
964
962
963
962
961
962
961
961
964
963
962
960
958
955
954
949
950
948
948
950
952
952
950
949
946
946
945
944
942
944
944
944
947
946
947
946
944
943
942
940
940
940
942
944
943
943
943
943
940
939
937
936
937
939
938
942
943
941
941
942
940
938
939
936
936
937
937
940
940
942
943
942
944
944
944
944
945
947
950
950
952
953
954
953
954
956
957
955
953
952
948
949
950
950
948
947
945
943
942
940
939
937
937
937
935
935
934
933
930
931
930
930
929
929
933
932
935
936
937
935
934
933
932
929
925
923
923
927
939
956
977
1006
1036
1072
1107
1136
1149
1140
1109
1066
1020
977
951
938
938
946
953
957
957
957
954
951
949
946
944
943
939
939
937
935
936
937
938
938
939
941
940
940
939
939
937
936
934
938
939
941
940
938
940
938
936
935
935
936
936
938
940
941
943
944
944
944
944
944
940
941
940
943
943
945
945
945
948
946
945
945
943
943
943
944
944
948
949
950
950
948
947
946
946
943
944
945
947
947
949
948
950
949
948
946
946
947
947
949
954
956
956
960
962
960
960
960
960
960
961
962
963
964
961
965
965
964
962
958
958
954
952
955
955
953
955
953
953
952
950
948
946
945
945
944
945
944
946
946
946
945
942
942
941
940
940
940
940
943
944
943
944
943
942
943
939
938
938
940
938
939
942
942
942
942
940
938
936
934
934
934
937
940
941
940
941
941
937
937
937
937
937
939
941
944
946
948
950
951
949
949
947
948
948
949
955
957
958
958
960
956
950
947
942
941
941
941
943
940
942
943
943
942
939
935
932
929
927
925
929
929
932
934
935
933
932
932
931
929
927
931
930
933
934
932
929
929
925
927
936
951
972
1002
1034
1072
1108
1136
1145
1130
1095
1045
993
954
934
933
941
952
960
962
960
953
947
941
937
936
935
935
937
941
941
940
941
942
940
937
937
935
934
937
939
939
940
942
940
941
939
939
936
936
935
938
940
941
943
944
945
946
944
942
942
940
940
941
942
942
945
944
945
944
944
941
941
941
939
942
944
942
945
946
945
945
944
945
943
942
942
942
946
947
947
948
947
948
946
946
944
945
945
948
952
954
957
958
960
961
960
960
959
957
958
959
960
960
961
960
961
958
957
954
953
950
947
949
951
948
950
948
949
948
946
943
943
941
941
941
943
942
944
944
943
943
942
941
939
939
938
938
940
940
943
940
940
939
939
938
937
935
935
937
936
936
938
940
939
937
937
935
934
933
931
934
934
936
938
939
939
940
940
939
941
941
943
945
947
946
950
952
952
952
953
951
953
955
953
954
954
953
950
950
947
946
945
942
941
941
940
940
939
938
939
937
936
932
931
928
928
928
928
929
930
933
935
934
935
934
931
929
930
928
928
927
926
925
928
933
946
967
990
1019
1051
1086
1114
1133
1131
1112
1072
1028
988
959
943
941
947
952
957
960
958
955
952
949
946
942
942
939
940
936
935
936
938
939
940
940
942
941
940
939
937
936
935
937
938
939
940
941
942
940
938
938
934
937
934
935
938
939
942
941
942
943
942
940
939
937
936
939
940
943
943
945
943
944
942
944
943
943
941
942
942
946
945
947
946
944
947
945
943
946
943
942
943
946
948
947
948
949
950
950
948
949
950
953
955
956
958
964
965
965
963
963
959
960
961
960
962
961
961
962
962
962
959
957
954
953
951
949
948
947
947
947
947
947
945
946
944
942
941
943
943
945
945
945
945
945
943
942
941
940
940
939
941
940
940
943
943
944
942
940
938
937
936
938
937
939
940
941
940
939
938
936
936
937
936
937
939
939
940
941
943
943
943
941
943
944
943
944
945
946
948
951
956
958
958
959
957
952
949
947
946
945
947
947
947
947
945
943
941
940
937
935
933
934
935
935
937
934
935
933
933
931
931
932
934
937
936
937
938
938
935
932
926
923
925
931
946
968
997
1030
1069
1108
1140
1156
1147
1117
1076
1030
989
961
951
948
951
957
958
957
954
951
947
945
943
942
943
942
943
942
941
941
938
936
934
936
938
941
942
941
941
942
940
939
937
937
936
937
934
936
939
940
941
943
942
942
942
940
940
940
943
943
945
946
947
948
948
948
946
946
946
946
946
945
947
946
948
948
946
945
944
942
944
945
946
949
951
952
952
953
953
951
949
950
948
950
952
952
954
956
957
956
958
959
960
960
960
961
965
967
967
970
971
970
967
964
960
960
960
958
958
959
960
958
957
956
955
953
948
948
948
946
948
950
951
950
950
950
948
947
945
943
942
945
943
945
944
943
947
943
943
943
942
941
941
940
940
941
939
940
939
940
939
937
938
939
938
939
939
941
942
943
942
941
939
937
936
937
937
938
940
942
946
949
947
950
948
948
947
946
944
947
947
953
957
960
962
960
956
952
949
945
943
945
944
948
948
949
949
946
943
940
935
934
931
929
930
931
933
936
937
933
933
932
928
929
929
930
931
932
936
938
938
937
932
926
922
922
928
940
956
981
1012
1048
1088
1124
1154
1163
1152
1117
1073
1025
985
957
944
943
947
950
953
954
953
950
946
943
939
940
940
939
939
940
938
937
937
936
935
936
936
936
937
936
936
936
937
935
933
932
933
933
938
937
938
938
938
940
937
937
936
935
936
937
939
941
942
944
943
943
943
940
941
939
939
940
941
941
943
944
944
944
943
944
943
939
940
939
940
941
944
944
945
944
945
943
942
939
939
939
940
943
944
946
947
947
949
947
948
949
948
952
952
956
958
960
961
962
961
959
958
956
955
955
955
956
958
957
956
956
954
951
947
946
944
944
945
945
946
949
946
946
945
943
941
941
940
939
940
941
941
944
941
941
941
939
937
938
936
935
937
938
938
940
938
941
939
938
936
935
936
934
936
936
938
939
941
938
937
935
933
932
932
931
935
936
936
937
940
938
940
939
940
941
941
944
944
947
947
948
948
950
949
951
952
953
953
951
950
949
948
948
947
948
946
945
942
943
941
938
939
940
938
939
936
936
934
932
932
931
931
931
932
934
935
937
938
938
937
934
936
933
933
931
928
924
922
927
932
947
966
992
1023
1060
1099
1134
1162
1164
1141
1099
1043
990
952
933
932
942
955
957
961
961
958
955
951
947
945
944
942
941
940
938
939
941
942
941
940
942
941
941
938
939
940
938
940
942
943
945
944
944
943
941
940
939
939
938
941
944
945
946
946
945
946
944
944
943
943
944
943
946
947
948
949
950
947
947
945
944
942
945
946
947
949
950
951
951
951
949
948
947
946
947
948
949
951
952
954
954
952
954
954
953
953
955
956
958
961
963
966
966
967
965
965
966
963
963
963
963
965
965
962
962
959
957
954
952
951
953
952
954
952
955
954
953
951
949
948
945
946
944
945
946
947
948
948
948
946
946
943
946
939
942
943
944
944
945
946
946
944
945
943
942
940
941
941
942
944
945
946
946
945
943
942
940
940
940
941
942
945
946
950
950
951
953
951
950
950
951
952
954
955
959
961
964
966
964
961
958
955
952
952
951
950
954
953
953
952
949
946
945
942
941
941
939
937
937
939
940
940
938
936
936
934
933
935
936
937
938
939
939
937
937
932
929
926
925
931
944
961
983
1014
1050
1086
1121
1150
1163
1151
1121
1075
1023
984
955
942
945
953
961
964
964
962
956
953
949
946
946
945
946
943
945
942
940
940
939
940
940
941
945
944
946
944
944
943
941
939
942
942
943
944
946
946
946
945
944
942
943
942
940
942
944
946
948
949
949
948
947
944
945
945
946
947
946
950
951
953
951
951
948
946
946
947
947
948
949
951
951
953
953
950
951
951
949
948
947
950
950
951
954
954
954
955
954
954
953
953
956
959
961
964
965
967
970
970
968
966
966
966
965
965
967
966
968
967
967
963
962
959
956
955
951
951
952
953
953
954
955
952
952
950
948
948
948
948
948
951
949
950
949
947
946
944
944
942
942
944
943
944
946
946
945
946
944
941
941
940
940
940
940
942
943
943
944
941
939
939
936
934
935
938
939
941
942
943
943
943
942
942
946
946
944
951
949
951
952
953
955
957
959
959
957
954
951
948
947
946
950
948
950
948
945
943
942
939
937
936
936
932
933
932
934
934
934
932
930
931
930
931
931
932
934
934
935
934
932
928
921
919
922
935
950
976
1008
1048
1089
1126
1153
1159
1143
1106
1055
1004
962
941
933
942
952
959
962
960
954
949
945
942
940
937
939
939
941
941
938
938
936
936
935
937
937
937
939
940
940
940
938
938
937
936
936
935
937
937
939
939
939
942
938
940
940
940
939
941
943
943
942
945
945
944
945
942
943
939
940
941
943
945
946
943
945
947
945
943
942
941
940
941
942
944
945
947
946
946
944
945
943
944
943
944
945
948
950
951
951
955
953
954
952
954
954
954
957
958
962
961
962
961
959
956
955
953
953
953
955
955
953
953
953
951
950
948
944
943
943
943
945
945
945
944
945
943
943
940
937
938
937
938
938
939
941
939
941
940
940
938
935
934
933
936
936
936
937
937
939
938
937
936
934
933
931
931
934
934
936
937
938
936
934
933
932
931
931
935
936
936
939
940
943
947
945
944
944
945
943
946
945
949
952
953
955
955
952
946
945
940
939
940
941
941
943
943
942
941
936
933
929
929
927
924
925
926
927
928
928
928
930
927
926
927
927
928
928
931
931
932
930
924
922
923
927
943
963
991
1023
1059
1095
1127
1143
1136
1108
1064
1015
975
946
934
936
944
953
955
958
955
950
944
940
936
934
935
935
936
936
935
936
935
933
934
933
933
933
934
935
935
937
938
938
938
936
935
933
931
929
931
933
937
937
940
941
942
940
939
938
938
938
938
938
939
942
943
944
943
941
941
941
939
939
940
941
942
945
945
944
944
942
942
941
940
941
940
942
942
944
945
946
945
944
942
942
942
941
944
946
948
950
952
954
956
955
956
954
958
957
956
961
962
963
964
965
963
961
959
957
957
956
954
955
955
955
953
951
951
949
946
945
943
943
945
944
944
944
944
943
941
940
939
939
936
934
937
938
937
940
941
938
939
938
937
936
935
935
937
937
940
940
939
940
940
938
937
936
934
933
932
935
933
935
936
937
934
937
934
932
933
932
933
937
940
944
944
946
946
943
944
942
942
941
942
944
947
952
956
956
956
953
950
945
942
940
941
942
943
944
945
944
942
940
938
935
930
930
926
927
928
930
930
928
931
932
930
929
928
927
928
930
931
932
932
932
928
926
924
922
929
941
961
990
1024
1065
1107
1141
1161
1155
1124
1078
1025
978
950
936
937
946
954
957
956
955
948
942
937
934
933
933
935
936
937
938
938
935
934
933
933
931
929
932
935
935
936
936
936
937
935
933
932
931
933
935
936
938
939
939
940
941
939
937
937
935
938
940
940
942
943
942
941
941
937
936
936
936
937
940
941
943
944
945
944
944
942
940
942
939
940
941
942
943
945
946
947
946
946
945
945
945
947
949
951
954
954
958
959
958
959
960
959
958
960
959
961
962
960
962
960
958
957
952
951
951
950
950
949
950
948
950
948
948
944
943
942
941
943
943
943
944
946
943
943
940
939
936
937
939
937
937
938
939
939
939
940
939
938
935
934
930
934
933
934
936
938
939
938
935
935
933
931
931
933
934
936
936
935
938
938
938
938
936
938
937
939
942
942
945
947
946
946
945
944
943
946
948
950
953
951
951
949
949
946
946
943
943
941
939
940
941
941
940
941
938
935
933
929
925
927
926
925
926
927
928
929
929
927
928
929
929
928
931
930
931
929
929
926
924
922
925
931
942
963
990
1022
1059
1099
1136
1163
1172
1156
1121
1073
1023
981
956
942
942
948
954
957
956
956
954
950
945
940
938
936
934
935
936
940
939
940
940
937
936
934
933
933
935
936
937
938
938
937
937
935
932
934
933
933
935
937
938
938
940
940
941
939
939
938
938
936
938
940
941
943
943
942
942
939
939
938
937
939
936
937
939
941
943
943
946
945
940
942
942
941
943
944
943
946
945
945
943
941
940
941
942
944
945
945
948
951
950
953
954
953
956
956
958
957
961
960
963
965
966
964
961
960
959
960
958
959
958
957
956
956
955
953
949
948
948
946
943
944
944
948
949
951
950
949
949
947
945
944
943
942
942
945
943
944
946
944
943
942
941
941
941
940
942
941
943
942
940
942
941
939
935
936
936
937
938
939
941
942
942
944
941
940
938
937
936
938
939
943
947
947
950
952
952
947
947
943
943
946
949
956
960
963
962
962
958
954
949
948
946
946
945
945
945
946
947
943
942
940
939
933
930
928
932
930
932
936
936
938
936
935
934
931
932
930
932
934
933
938
938
935
931
923
920
922
931
949
974
1006
1047
1092
1135
1174
1192
1189
1156
1105
1049
999
962
944
941
949
956
961
959
958
954
951
949
946
944
944
944
945
944
946
942
941
940
939
938
937
939
940
942
942
944
944
943
941
940
939
937
938
938
940
942
944
944
945
944
943
942
942
941
942
943
947
946
948
946
946
947
947
945
945
944
944
946
948
950
949
950
952
948
946
945
945
945
946
946
947
949
952
949
950
950
949
946
945
946
944
946
948
951
952
953
953
955
956
954
956
956
958
960
961
963
966
968
967
966
967
963
963
961
961
962
962
961
963
963
961
958
956
954
951
951
949
953
951
953
954
955
954
954
953
952
950
949
947
950
950
950
952
952
954
952
948
948
948
947
946
948
948
949
950
951
949
948
948
947
945
945
945
945
947
947
946
946
947
946
946
943
944
943
942
942
947
946
949
951
952
953
952
952
955
954
954
957
960
959
961
965
968
966
967
964
960
957
953
953
954
954
955
955
953
952
951
949
946
944
941
940
939
939
939
941
941
940
940
941
939
938
938
938
941
941
944
943
942
943
940
932
928
923
927
939
959
987
1022
1065
1113
1155
1177
1174
1136
1083
1022
972
945
938
949
960
970
973
970
963
956
950
947
947
947
947
949
950
950
947
946
945
945
944
944
943
945
946
946
948
949
948
948
945
945
943
944
944
945
947
949
951
951
950
949
950
949
949
949
951
952
952
951
953
955
954
953
951
950
951
951
949
951
954
954
954
952
954
953
951
952
952
952
953
954
955
959
956
958
958
956
954
955
953
954
955
958
960
962
962
964
966
966
967
967
966
970
972
971
973
976
977
976
976
973
971
968
968
964
966
968
966
967
965
966
964
962
960
958
955
954
953
956
955
957
959
957
956
953
953
949
949
949
948
950
951
952
953
953
953
951
949
947
948
947
948
949
950
949
951
950
950
948
946
946
946
945
948
948
949
949
950
951
951
949
948
946
947
946
948
952
954
957
959
960
960
960
959
958
958
959
960
964
967
971
972
973
968
963
962
957
956
955
955
955
957
956
958
956
955
953
949
944
940
940
940
939
942
944
944
946
944
944
941
942
942
939
942
943
943
944
945
943
938
932
929
933
947
967
994
1027
1066
1107
1150
1176
1181
1158
1114
1058
1005
964
944
942
952
965
972
978
975
969
962
956
951
947
946
950
950
951
951
949
948
950
947
946
947
946
946
949
950
952
951
950
950
950
948
946
946
946
947
949
949
953
954
954
955
954
954
952
951
950
953
953
955
957
957
957
958
956
955
953
954
953
954
954
957
957
959
960
959
958
958
955
954
955
956
958
958
960
961
961
961
959
957
955
957
958
960
960
963
967
969
971
971
973
973
972
972
972
975
973
975
976
978
976
975
974
971
968
966
965
963
965
966
966
966
964
962
961
960
957
957
957
957
956
958
958
959
959
957
955
955
953
952
950
952
952
952
954
955
955
955
953
952
950
951
949
951
950
950
952
953
953
954
951
950
949
948
945
948
949
948
951
951
951
949
947
948
947
945
947
946
950
952
955
954
960
961
962
961
961
961
959
961
965
969
969
972
970
968
963
958
957
955
954
954
955
957
956
956
955
952
950
946
943
941
938
941
940
944
946
945
945
946
943
943
942
943
942
943
942
944
945
943
939
936
932
933
942
955
975
1006
1043
1085
1126
1158
1174
1166
1129
1077
1022
976
948
940
946
959
968
973
973
971
967
961
956
953
948
949
950
951
954
953
953
953
950
949
946
946
945
946
947
948
950
950
951
949
947
947
946
946
947
948
949
951
949
952
952
952
952
950
948
951
951
952
952
952
956
957
954
956
954
954
951
953
951
950
949
953
955
956
956
956
953
953
951
951
953
952
954
957
958
958
958
958
957
957
956
954
955
955
958
960
963
964
965
966
968
968
968
970
970
971
973
975
978
979
978
978
975
975
973
971
970
969
969
969
970
970
967
966
964
962
960
958
957
956
956
957
958
958
959
958
956
954
953
952
951
949
953
952
953
955
954
955
954
950
948
946
946
947
948
949
952
950
950
952
951
948
946
945
947
946
946
947
947
950
949
949
947
947
944
944
944
942
947
948
951
953
954
955
957
956
955
954
953
955
955
956
963
964
966
969
968
965
961
958
953
954
952
952
955
954
956
956
955
952
950
946
944
943
942
939
940
941
941
940
940
939
937
936
936
936
938
938
939
941
942
941
940
936
934
930
925
928
935
948
967
992
1025
1061
1100
1137
1163
1170
1152
1113
1064
1014
975
952
947
950
958
964
966
966
961
957
953
951
950
948
948
948
946
944
942
942
943
941
943
946
946
947
948
947
946
945
943
944
941
943
945
945
947
948
948
947
948
946
946
942
944
944
947
949
951
953
953
952
952
951
949
946
948
948
949
951
952
953
954
951
951
949
948
948
947
949
949
949
950
952
954
956
954
953
952
951
951
952
954
957
958
958
959
958
959
959
958
957
958
962
964
968
970
971
973
973
973
974
972
972
970
971
969
970
970
969
969
968
967
965
962
960
960
958
957
956
957
957
956
956
955
951
951
949
951
948
949
949
952
952
950
951
950
948
945
943
944
944
945
946
948
949
950
950
947
945
943
942
942
941
943
942
946
945
944
946
946
944
942
942
942
940
940
942
945
945
947
943
944
941
939
939
938
939
939
942
946
950
952
954
952
951
951
949
948
950
954
957
962
963
966
964
960
954
950
948
947
949
951
950
950
949
949
949
947
943
940
937
933
933
933
934
935
935
935
936
934
933
931
930
931
932
931
932
935
935
935
936
931
927
922
922
930
946
969
1000
1040
1082
1130
1169
1193
1190
1158
1107
1045
991
954
936
935
943
950
956
957
956
951
949
945
943
942
941
941
941
942
939
939
937
937
936
936
935
938
936
938
939
939
938
938
936
933
933
936
938
938
940
944
944
943
943
940
940
937
936
939
941
941
943
943
945
945
946
946
943
945
942
941
941
942
943
943
946
945
946
945
945
944
943
943
943
943
944
945
944
949
949
949
948
949
948
947
944
947
950
953
956
958
960
961
962
960
960
960
961
962
962
963
965
966
964
964
963
959
956
957
955
956
955
956
954
953
954
950
949
948
947
945
944
943
945
945
946
948
948
946
945
944
943
938
940
941
941
941
942
942
941
940
940
939
938
937
936
938
937
938
939
941
940
940
938
934
938
935
935
936
937
938
939
940
940
937
937
935
934
936
936
938
941
943
944
948
947
948
946
946
944
943
945
947
950
956
959
960
960
956
953
950
948
947
945
947
948
947
946
946
946
945
945
940
937
933
931
931
932
933
935
934
934
935
932
932
930
930
931
931
932
934
936
934
931
926
920
919
922
932
952
979
1013
1055
1099
1145
1186
1203
1195
1159
1103
1040
984
949
934
937
945
954
960
960
957
953
948
946
941
940
939
940
942
941
942
941
939
937
936
933
934
934
935
936
938
937
939
939
939
936
938
937
937
940
942
942
943
945
945
945
944
943
942
941
941
943
943
946
945
947
947
946
945
944
944
941
941
944
946
947
949
950
950
950
948
945
945
944
944
943
946
947
947
949
947
944
945
944
945
943
942
945
946
949
951
951
955
958
959
958
960
959
961
964
966
968
969
969
968
967
966
963
962
960
959
959
958
957
960
959
957
954
955
951
949
947
948
948
947
949
950
952
951
950
949
947
946
944
945
945
945
947
948
948
949
948
945
946
944
944
941
943
943
945
945
944
947
944
943
942
938
940
939
941
940
942
943
944
941
942
943
942
941
944
943
947
950
953
956
956
956
957
955
953
956
956
959
962
963
962
960
957
956
955
953
951
951
948
947
947
947
949
947
944
943
938
936
936
934
933
934
936
938
939
940
941
940
940
940
938
938
937
934
932
929
927
930
937
954
976
1006
1041
1081
1123
1160
1181
1179
1148
1100
1039
988
951
935
940
949
960
964
967
966
961
957
954
951
946
945
944
944
944
942
942
945
944
945
947
945
947
945
943
943
942
941
943
943
946
947
946
949
948
946
944
945
946
944
946
947
948
950
951
950
952
949
949
947
947
947
948
950
949
951
953
952
953
952
950
949
948
949
950
951
952
953
955
955
956
954
950
951
950
950
953
953
953
956
958
957
956
955
955
955
954
953
956
961
961
965
966
970
969
969
968
965
966
965
966
970
970
972
970
971
967
967
965
961
960
960
959
959
959
960
959
958
957
955
953
952
951
949
949
951
951
952
953
953
952
950
949
947
946
945
947
947
948
950
949
951
951
948
947
944
944
945
945
942
946
945
945
944
946
943
943
943
943
942
941
944
944
946
947
947
944
944
945
945
947
948
950
953
954
956
955
957
957
957
958
959
962
961
962
959
957
955
955
953
952
952
950
948
946
942
945
943
942
941
939
938
936
934
936
933
934
934
935
935
936
938
939
940
939
937
935
933
929
925
924
930
942
962
992
1027
1070
1112
1151
1174
1173
1145
1098
1042
990
956
941
942
949
960
966
965
962
956
952
948
947
947
949
949
948
946
944
941
941
939
940
943
942
943
945
946
946
943
941
940
940
940
942
942
944
949
949
949
949
949
948
947
946
946
949
951
949
951
953
954
953
952
950
950
949
949
949
950
950
953
955
956
955
954
952
952
950
950
951
950
951
956
956
957
957
954
952
952
951
951
950
952
952
955
958
960
957
958
958
958
958
958
960
963
968
969
970
973
973
972
970
970
969
968
968
967
966
967
966
967
966
965
961
959
959
956
956
956
956
956
956
955
956
955
951
949
949
949
948
949
950
951
953
954
951
951
949
948
948
947
945
948
948
950
949
949
948
949
945
946
945
944
945
944
946
948
948
947
947
946
946
943
943
943
942
944
944
946
947
948
950
950
948
950
951
952
953
955
958
959
960
961
961
962
961
961
962
962
960
960
958
959
957
957
958
954
953
951
952
950
951
949
949
946
944
942
941
939
938
936
936
937
937
939
939
941
942
942
942
943
940
937
938
933
930
928
927
939
954
976
1008
1044
1085
1127
1160
1173
1160
1125
1072
1019
974
948
940
945
952
961
966
966
964
960
955
953
952
950
948
949
945
944
943
942
941
944
943
944
944
944
944
942
942
939
941
940
941
942
944
946
947
949
949
948
947
947
946
947
946
948
949
948
950
952
952
949
949
948
948
947
947
950
950
953
953
955
956
952
952
949
951
950
952
952
953
954
956
955
954
953
951
951
949
948
951
951
952
955
956
959
961
962
960
961
963
962
963
967
970
972
973
974
977
974
973
970
969
967
966
966
967
965
966
964
963
963
959
957
957
954
953
954
954
956
956
956
955
954
952
951
951
949
950
949
949
948
951
951
948
945
945
943
945
945
946
944
945
947
948
947
946
946
944
944
943
943
944
943
945
943
945
945
946
946
944
940
941
939
940
943
945
946
946
947
947
944
946
944
948
947
948
951
952
954
955
958
957
960
962
962
960
960
958
955
956
957
956
955
955
952
952
950
946
945
945
943
943
942
940
939
938
936
935
933
932
933
932
936
936
935
935
934
936
934
934
935
933
934
932
930
928
927
930
940
956
979
1007
1044
1086
1129
1168
1190
1187
1158
1110
1054
1004
965
943
938
943
952
956
958
958
956
957
955
951
947
944
943
941
938
940
940
941
941
941
940
942
940
940
938
936
937
938
938
940
943
943
942
943
943
941
940
941
940
942
943
943
945
947
947
946
947
945
944
944
941
942
