916
916
916
916
916
916
916
916
914
917
919
918
923
922
922
923
921
920
916
918
917
920
919
920
921
921
922
922
921
920
915
916
917
918
917
921
921
922
921
919
917
916
915
914
914
916
917
916
921
921
919
919
917
914
915
912
914
913
914
915
916
917
917
914
914
911
912
911
911
910
911
914
914
915
913
912
910
909
907
907
905
908
909
908
910
911
909
909
905
905
901
903
901
901
903
905
906
906
904
906
902
903
898
902
902
902
905
907
909
911
908
912
911
909
906
911
911
912
915
915
916
917
917
917
917
915
915
913
914
915
914
918
919
920
921
920
918
918
915
914
915
917
918
919
922
921
923
922
920
917
917
917
917
917
918
919
922
921
921
919
919
917
915
915
918
918
918
920
921
922
924
923
922
920
920
920
920
920
921
922
920
920
916
912
910
907
908
909
910
913
912
912
915
917
918
918
917
916
918
917
918
919
920
921
922
924
923
923
923
920
918
917
917
918
921
921
925
924
926
926
925
921
916
906
899
888
877
871
868
873
876
886
897
912
923
930
933
929
922
917
915
912
914
917
918
920
918
917
920
921
921
922
924
926
925
924
923
922
919
920
919
923
923
924
924
927
926
925
922
921
920
920
920
922
922
924
923
924
924
923
924
921
919
918
920
920
921
921
921
921
921
920
919
917
915
916
916
917
915
915
917
918
918
916
913
913
912
911
912
912
910
913
914
916
915
916
911
912
910
908
909
907
910
907
908
909
909
909
907
904
905
904
904
905
906
906
910
911
910
912
910
910
907
907
909
911
912
914
916
916
917
919
917
916
915
914
915
916
918
920
922
924
923
923
920
920
918
918
917
917
921
921
923
925
925
924
923
921
920
918
917
919
921
921
925
925
923
924
922
922
921
919
918
921
922
924
926
925
925
927
925
924
923
922
921
922
924
926
928
930
930
930
929
929
926
925
925
924
921
919
921
918
919
921
917
918
917
917
918
918
920
922
923
925
926
924
927
927
924
924
923
924
926
926
929
929
927
927
927
924
924
923
922
924
926
926
929
931
927
922
914
903
892
877
869
868
871
881
894
912
928
939
944
945
937
928
921
915
915
916
920
925
926
927
923
923
922
920
923
924
925
926
928
929
930
929
929
925
925
925
926
927
925
929
930
931
931
929
926
924
923
923
923
922
926
925
927
927
926
925
925
923
921
919
921
921
921
923
923
924
924
922
922
920
919
920
918
917
919
920
920
922
923
920
919
916
915
912
914
914
914
916
916
918
917
918
913
911
910
908
908
908
909
911
910
911
911
911
908
909
906
906
907
906
909
909
912
913
915
913
913
914
912
912
914
914
917
919
920
920
919
921
922
921
921
921
922
922
923
922
927
927
926
927
925
923
922
921
922
923
924
926
929
928
930
931
926
926
924
923
922
924
926
928
928
930
929
929
927
928
926
923
925
924
929
930
929
930
932
929
931
928
929
928
927
929
932
933
934
938
936
935
935
935
930
928
927
928
927
927
927
927
924
926
924
926
922
921
924
923
924
929
929
930
932
933
932
932
931
928
929
931
931
933
934
938
934
933
932
931
927
928
926
931
930
930
934
932
932
931
924
918
909
897
888
886
886
893
903
918
930
940
948
953
948
944
937
931
927
927
926
930
931
931
932
930
929
928
927
929
928
930
931
935
934
932
931
929
930
926
926
926
929
931
932
934
932
931
931
930
926
926
925
924
928
929
930
933
933
930
929
927
924
925
923
923
926
926
927
929
927
927
924
923
921
920
919
920
920
922
923
923
921
921
921
918
915
914
916
916
918
919
920
921
919
919
917
913
912
911
910
911
912
914
916
916
915
916
915
915
911
910
912
912
915
917
919
920
922
920
920
919
919
919
920
922
922
924
923
927
925
925
926
926
924
923
922
925
925
925
928
929
931
930
929
927
924
926
922
926
926
929
931
931
930
931
927
926
926
926
925
927
929
928
932
932
933
931
929
929
928
927
926
927
926
929
930
934
933
930
931
928
927
927
930
928
930
932
935
935
935
933
932
928
925
921
920
922
920
923
923
924
925
924
923
922
920
921
921
922
924
927
929
930
932
931
929
929
926
926
924
926
927
929
930
932
931
931
930
927
925
924
924
926
928
931
928
929
922
914
906
897
890
885
886
890
897
905
917
926
934
937
939
931
927
921
917
915
917
919
923
925
927
926
926
925
922
924
922
922
922
926
927
927
929
927
929
926
923
924
923
922
926
927
927
928
928
928
926
925
924
924
922
921
923
925
925
927
928
926
922
921
920
918
920
920
920
922
924
924
922
923
921
920
917
917
918
918
919
918
920
923
918
919
916
916
913
914
915
915
916
918
918
917
917
917
915
911
910
911
911
910
911
913
913
914
911
913
911
908
906
906
907
907
909
909
913
913
914
913
912
911
913
910
913
914
914
919
918
920
921
919
921
919
917
917
918
920
923
924
925
927
926
924
924
924
921
922
923
924
924
926
929
928
927
928
926
927
924
923
924
926
927
927
928
931
928
927
926
924
925
926
925
926
930
929
931
932
931
930
928
928
923
924
927
926
931
931
933
934
934
933
930
931
929
926
924
924
925
924
923
923
922
921
921
919
919
918
920
923
921
926
929
929
930
930
927
930
928
926
929
929
930
932
932
933
932
932
931
930
926
926
929
928
927
931
933
934
933
934
930
925
915
907
900
892
885
884
889
893
900
914
922
930
937
938
937
933
928
924
922
924
924
925
927
925
925
927
927
928
929
929
932
934
934
932
930
927
927
927
930
929
930
931
931
932
930
931
928
927
927
926
926
926
928
928
929
931
931
929
927
926
924
923
925
927
925
928
929
928
929
927
923
923
921
922
923
919
925
925
925
924
925
923
921
920
918
916
919
916
919
920
922
922
922
919
919
917
916
915
916
915
916
918
917
919
918
914
913
911
908
909
910
909
912
911
912
913
911
913
913
911
912
911
914
914
914
920
919
921
922
921
920
919
918
919
920
920
924
925
927
927
928
927
925
924
922
925
924
925
925
926
929
930
927
929
926
925
925
924
924
925
927
929
930
930
930
929
927
927
925
925
925
925
929
929
932
930
931
931
929
925
928
924
925
928
930
932
931
930
933
932
930
928
930
930
929
930
933
933
933
932
930
929
925
923
920
920
917
922
921
924
925
926
925
925
924
924
925
925
928
931
931
932
935
934
931
932
929
930
929
927
928
929
929
930
933
932
932
932
931
931
929
925
923
918
911
900
890
885
881
886
893
902
915
926
939
941
940
935
932
924
924
922
923
925
925
924
926
927
928
931
932
933
932
931
929
928
929
926
929
927
930
931
932
932
931
932
931
929
927
929
928
929
931
930
933
932
931
929
930
928
927
926
925
926
927
929
929
929
929
929
927
925
924
922
923
922
926
925
925
928
927
925
923
920
920
919
918
921
923
924
924
924
922
923
919
918
916
914
916
915
918
918
917
918
918
917
916
912
913
911
912
912
913
915
918
918
915
917
915
915
913
915
915
917
920
922
923
926
924
925
924
922
923
923
923
926
926
929
930
930
931
931
929
929
928
925
927
928
930
932
931
932
932
930
929
929
927
927
928
928
929
930
932
933
932
933
932
929
929
927
929
929
930
931
932
935
932
930
930
930
930
930
931
931
933
933
934
936
938
937
935
933
932
931
931
934
934
934
934
932
931
928
924
925
923
922
922
924
925
929
930
931
929
930
930
927
929
929
930
929
933
932
935
935
932
936
934
932
931
930
932
932
933
932
934
938
935
936
934
934
931
929
927
922
916
908
900
893
889
890
895
904
915
927
941
948
952
951
949
942
936
932
927
923
927
926
926
931
934
933
934
937
937
937
934
933
931
930
931
932
935
936
938
939
937
935
934
932
931
929
932
933
935
935
938
937
936
937
932
932
929
929
931
931
931
932
935
934
932
931
931
928
927
928
927
927
928
928
928
930
929
928
928
926
925
924
923
924
924
925
926
926
926
924
922
919
918
917
918
920
918
920
920
922
919
920
918
917
915
916
915
916
918
919
922
921
922
923
921
922
920
922
922
923
925
928
929
933
931
932
929
930
930
929
927
930
933
934
937
936
936
936
934
935
932
931
932
934
933
937
936
939
938
938
936
933
932
933
934
933
937
938
939
941
940
938
938
935
934
934
935
937
936
938
938
938
939
938
937
936
936
934
936
938
943
944
943
945
943
942
940
938
935
932
930
931
931
932
934
935
934
936
934
933
932
931
933
936
936
938
939
941
942
940
938
938
936
934
939
937
936
940
939
940
940
941
937
937
936
934
936
935
936
937
933
929
921
911
906
900
900
898
910
920
933
942
950
955
956
952
946
938
934
927
928
928
932
934
935
938
938
935
934
932
930
929
932
933
934
934
935
937
937
935
935
934
933
933
931
931
933
935
937
937
937
936
933
931
930
931
930
931
934
932
934
936
934
933
931
929
927
926
926
928
930
931
932
933
932
929
928
927
925
923
924
925
926
926
925
928
927
925
924
923
920
919
919
919
921
921
923
924
923
922
920
919
917
915
917
916
918
917
917
919
918
919
918
915
915
915
916
918
919
920
924
925
925
926
924
923
921
923
924
925
925
929
929
931
932
932
931
928
928
928
930
931
931
933
933
934
934
935
933
932
931
930
929
930
932
932
935
934
936
934
934
931
932
933
931
931
933
935
936
937
938
935
934
934
929
930
931
930
932
935
936
936
936
936
933
932
933
935
935
933
936
936
941
941
941
941
937
934
933
928
927
926
928
929
930
930
929
928
930
927
927
927
927
928
931
932
935
937
937
936
936
935
934
930
933
934
935
936
938
938
938
938
936
935
933
932
935
934
935
936
940
940
938
931
924
916
907
899
894
893
900
906
915
925
936
944
944
941
935
930
928
924
925
928
930
934
935
934
934
935
932
930
931
933
934
936
937
938
939
937
938
935
934
933
933
934
937
936
937
938
938
937
937
934
932
932
934
934
935
935
935
937
935
933
932
930
931
929
930
930
930
931
932
933
933
931
932
928
926
928
925
926
927
927
928
929
932
927
928
927
925
924
923
924
924
925
927
928
928
925
926
923
922
921
919
919
922
921
924
922
923
922
921
919
917
916
915
915
917
918
919
923
922
922
921
917
918
918
918
920
921
923
926
928
927
926
927
927
926
923
925
927
929
928
931
932
933
933
932
929
928
929
927
929
930
932
933
934
933
933
932
931
928
925
929
927
930
933
932
935
934
934
932
931
930
928
927
929
930
933
933
933
932
934
933
931
930
928
929
931
931
932
932
935
933
934
933
932
932
930
932
932
935
935
935
938
937
933
931
927
924
923
923
921
922
925
928
930
930
929
926
927
926
927
927
931
931
933
934
935
935
935
934
932
932
932
933
931
933
932
934
935
936
935
933
933
932
930
931
931
930
926
921
912
903
896
891
889
891
900
908
922
934
942
946
944
939
932
928
925
926
927
926
929
930
933
936
936
936
935
936
937
934
931
935
934
935
936
938
938
939
938
936
934
934
934
933
934
934
935
935
938
938
938
935
936
934
932
932
933
932
935
935
933
936
935
934
932
929
927
928
928
930
928
931
932
931
932
929
929
925
924
924
924
925
925
929
929
927
928
925
923
920
919
920
920
921
922
924
925
921
919
921
918
916
913
914
915
915
917
918
921
920
917
917
918
915
917
916
920
920
920
923
926
927
927
926
926
926
927
924
927
929
929
932
934
934
934
934
931
930
929
929
931
933
931
935
934
935
935
934
932
929
930
929
931
932
935
933
936
936
935
935
934
933
931
931
931
934
936
935
937
936
937
935
933
932
932
933
932
934
935
935
936
938
936
936
934
933
931
932
934
934
935
938
939
940
938
939
934
929
929
927
926
926
927
929
931
932
930
930
930
928
928
927
928
931
934
935
938
938
939
938
936
933
932
931
936
935
937
937
938
937
934
937
935
932
932
932
934
936
935
936
933
927
917
906
895
890
882
883
889
898
909
924
936
947
948
947
940
934
927
925
923
925
927
933
933
936
934
932
936
932
933
932
934
933
935
938
938
937
936
934
936
934
934
931
934
933
933
936
937
936
937
937
934
932
932
931
931
933
936
935
938
936
934
932
931
932
931
928
929
928
931
932
934
932
931
932
930
929
927
925
927
927
929
929
930
930
929
930
928
925
922
924
923
923
924
926
928
927
924
926
925
924
920
919
919
920
920
921
919
920
920
919
917
917
912
914
917
918
919
920
922
924
922
924
923
921
922
923
924
925
926
928
931
932
932
931
929
928
930
927
927
930
929
933
932
935
931
934
932
930
929
929
930
932
933
934
933
936
934
934
931
929
932
931
933
931
934
933
936
937
937
934
934
932
931
930
931
931
932
935
937
937
935
934
933
933
932
932
935
935
936
938
941
940
939
938
932
933
927
925
925
925
927
929
930
931
930
929
928
926
928
927
930
933
933
936
937
938
936
938
935
934
932
934
933
935
935
937
939
939
937
936
932
933
933
932
934
930
930
922
914
905
889
884
880
883
892
906
924
938
950
955
955
949
939
932
926
925
925
927
930
931
935
935
935
937
935
937
937
935
933
934
932
934
937
939
940
939
938
938
938
934
932
932
935
935
936
936
938
938
938
936
936
935
933
932
934
934
934
936
937
939
936
936
933
930
929
930
928
930
931
930
934
934
933
929
932
927
926
924
927
927
928
929
929
932
927
929
927
925
923
925
923
922
925
927
926
926
926
924
923
921
919
916
916
918
918
921
922
923
924
921
921
921
918
920
920
923
924
926
927
930
927
930
926
926
926
927
928
929
929
934
936
937
935
936
933
933
932
930
932
934
936
934
939
939
939
938
938
938
933
935
937
936
939
939
941
941
940
941
939
937
936
934
935
938
938
939
941
941
941
941
939
937
936
935
937
937
938
941
943
942
941
942
941
940
939
940
941
942
942
945
945
947
946
942
940
937
933
932
933
932
934
936
938
939
938
937
936
937
935
936
936
940
941
942
944
945
941
944
944
943
940
939
942
939
941
940
943
944
944
944
941
940
938
940
938
934
930
925
916
909
899
898
899
904
913
927
940
949
958
964
964
959
952
944
938
935
934
932
934
939
938
939
943
943
941
942
940
939
938
938
938
939
939
942
941
944
942
943
942
941
938
934
938
937
939
940
940
942
939
941
940
938
938
935
936
936
940
937
940
941
938
939
939
938
935
934
933
933
935
935
937
939
936
936
935
933
930
930
929
928
931
932
933
933
933
932
930
926
927
925
925
926
925
928
927
930
926
927
924
923
921
922
921
921
924
925
924
928
927
926
926
924
924
923
925
927
929
931
933
932
932
935
932
931
931
930
931
933
934
937
937
940
939
940
940
938
938
936
935
937
939
941
941
944
939
938
938
939
938
937
938
939
941
942
943
942
943
943
942
941
938
939
941
939
941
942
943
947
945
943
943
940
941
940
940
940
944
944
945
946
945
946
946
943
944
944
942
944
945
948
949
948
947
944
941
939
935
934
933
934
937
937
941
940
937
940
939
938
936
937
938
939
942
945
944
945
946
947
945
945
941
940
941
941
942
945
946
947
945
945
944
943
942
941
943
941
939
934
928
918
907
904
901
902
908
918
929
940
949
957
956
953
944
939
934
932
929
928
935
938
936
940
940
943
942
939
941
942
938
937
939
937
941
942
943
945
944
940
941
939
938
936
937
938
939
941
942
942
943
941
941
937
937
934
936
936
936
940
939
941
937
937
935
934
932
930
931
932
932
933
935
935
934
935
933
930
930
927
927
929
929
931
931
931
933
930
928
926
926
924
924
923
925
926
927
929
927
925
925
922
920
919
919
921
919
921
924
924
926
926
924
924
922
922
924
925
928
927
928
931
931
931
931
928
927
929
929
930
931
934
933
935
934
935
936
934
931
931
931
930
933
935
937
938
936
936
937
935
935
931
933
933
936
937
938
940
938
937
936
934
933
933
933
934
935
935
937
939
939
937
936
935
932
933
934
936
936
936
940
940
940
942
941
939
939
938
938
937
938
938
939
938
937
933
931
928
925
925
924
929
928
931
932
934
934
932
932
929
930
929
931
934
934
935
938
937
937
937
938
935
934
932
934
933
935
936
939
939
936
938
936
938
936
936
935
934
934
926
920
914
903
894
890
887
890
897
904
916
929
939
946
949
943
936
928
927
922
923
922
924
930
931
933
935
934
933
934
931
934
932
931
931
933
935
938
938
937
936
934
932
931
932
931
932
933
933
936
935
935
935
935
932
931
930
929
930
932
934
934
933
933
931
930
930
927
928
927
926
927
929
929
932
932
929
927
925
925
924
923
925
924
926
926
928
926
926
924
923
922
919
919
920
922
921
924
924
924
921
920
918
917
916
912
915
915
915
917
918
918
918
916
915
914
915
915
915
917
917
921
925
925
925
924
923
922
922
924
925
925
927
930
931
932
931
929
930
927
926
928
928
929
929
932
933
932
935
932
932
929
928
928
931
931
934
934
935
936
935
932
932
928
929
930
931
930
933
934
936
936
936
932
932
933
930
930
931
932
933
935
936
937
938
935
935
932
931
930
933
934
935
936
936
938
940
938
936
933
930
929
927
926
928
925
926
927
926
926
924
923
921
920
923
923
926
929
931
934
933
933
933
932
931
929
930
931
934
935
936
936
935
934
934
932
932
930
931
930
933
936
937
938
933
928
919
907
897
888
881
879
886
891
905
915
928
940
948
945
940
932
926
922
922
922
926
928
930
932
929
930
926
927
927
931
931
933
937
936
934
933
932
931
931
929
930
931
934
932
936
935
933
935
932
932
928
926
929
930
932
934
934
935
932
933
929
930
928
926
927
930
930
931
933
933
930
929
930
925
925
926
926
925
927
927
929
928
930
927
924
922
922
922
923
923
924
923
927
926
924
924
922
919
918
918
920
919
921
923
923
923
922
919
917
915
913
913
915
914
915
915
917
918
916
916
914
915
914
913
913
915
916
921
921
922
922
923
922
920
921
920
922
925
925
926
929
929
927
927
928
926
925
924
927
926
929
930
932
931
929
929
930
929
925
927
927
927
928
931
934
932
931
931
932
931
928
928
928
928
931
933
935
934
933
931
932
928
930
928
930
931
930
932
933
935
933
934
933
932
930
934
935
934
936
937
937
935
931
930
926
924
920
919
921
924
924
927
929
928
928
927
928
926
928
927
928
931
935
934
937
938
936
936
936
932
931
933
932
934
934
936
937
938
937
938
936
935
932
927
921
913
902
892
881
877
875
884
896
913
929
942
950
953
949
942
934
931
925
923
924
928
929
927
930
933
935
935
936
934
935
936
934
932
930
931
930
931
932
935
937
936
934
935
932
932
931
930
933
933
931
933
936
935
934
933
930
930
929
928
929
928
929
930
932
932
931
930
930
929
928
926
927
925
929
929
929
930
930
927
927
925
923
924
924
923
927
925
924
927
928
925
922
921
921
920
919
920
920
920
921
922
920
919
918
916
915
915
912
915
918
920
920
919
919
921
921
918
918
919
922
923
924
928
928
931
930
928
929
927
925
926
928
932
933
933
935
936
934
934
933
931
931
928
930
932
935
935
938
938
936
936
934
934
932
932
931
933
936
935
936
939
938
938
935
932
933
934
933
935
936
937
938
940
938
938
938
937
935
936
935
938
937
938
941
942
943
941
942
942
938
938
939
942
940
941
941
939
937
935
933
930
928
927
929
930
931
932
934
936
935
935
933
934
934
935
936
937
938
940
939
942
942
940
939
937
937
935
935
936
938
938
938
940
938
940
938
936
935
933
927
918
914
904
897
892
892
899
908
919
932
943
955
958
957
953
946
939
935
932
931
931
933
933
935
935
937
939
940
942
942
941
941
939
937
937
937
937
938
940
943
940
940
940
939
937
936
937
935
937
938
939
940
942
938
939
937
936
935
932
932
932
936
935
936
937
936
937
933
931
929
929
932
927
931
933
934
935
933
932
931
928
927
926
926
927
928
928
929
932
930
928
928
925
923
923
923
925
923
924
926
927
925
924
922
922
920
920
922
922
924
925
925
926
925
927
927
926
926
926
929
927
930
932
936
935
936
935
936
934
933
932
934
932
936
936
939
940
939
940
941
938
936
935
936
936
939
940
941
941
942
941
940
939
938
937
935
940
941
941
943
944
942
940
940
939
939
934
937
938
940
938
942
945
943
943
942
940
939
935
937
937
942
944
945
946
945
947
946
945
941
940
940
939
937
937
936
937
936
936
935
933
934
932
932
935
936
937
940
941
940
943
941
941
940
938
939
940
941
942
944
943
942
945
942
941
939
939
938
937
940
940
943
947
944
945
940
932
924
914
905
897
892
896
902
913
921
935
944
951
957
953
947
939
934
932
932
931
934
935
937
936
935
934
935
934
935
938
939
940
940
941
939
937
935
934
936
935
937
937
939
940
940
937
938
936
932
932
932
934
935
935
938
939
937
935
935
934
932
931
933
933
933
932
936
934
933
935
934
930
929
929
928
930
929
931
932
933
931
931
931
926
925
924
927
924
926
930
927
928
929
929
927
924
922
923
920
923
925
927
927
927
925
926
924
921
921
918
920
922
920
924
923
926
924
925
924
922
923
924
923
927
927
931
931
932
932
933
932
930
929
927
931
931
932
932
935
936
935
935
935
932
931
931
932
931
934
934
934
937
936
935
935
932
931
930
931
931
934
935
937
936
937
937
935
936
934
931
931
933
935
937
938
939
939
939
939
934
935
933
934
934
936
937
939
942
941
942
939
940
938
937
938
938
938
939
940
938
935
933
931
929
926
925
926
927
931
931
930
933
933
934
932
932
933
933
935
935
938
939
940
940
939
939
939
934
935
933
935
935
935
937
939
939
940
939
939
938
938
937
937
933
925
920
910
902
893
889
886
890
895
906
918
932
945
951
949
945
938
931
926
924
923
925
928
930
932
932
933
938
936
936
936
933
933
932
931
933
934
936
937
938
938
938
936
935
932
930
934
933
934
935
936
938
937
937
935
934
932
930
930
932
932
930
934
935
935
933
933
934
928
931
929
930
930
933
932
935
931
933
932
928
931
926
926
927
927
929
930
931
930
930
927
927
926
923
925
925
925
926
926
929
928
928
927
924
922
922
920
922
921
921
924
925
924
922
922
918
918
916
915
917
919
921
920
923
924
922
923
922
922
921
923
923
925
927
929
931
931
930
930
928
929
928
928
929
930
932
933
937
936
932
932
931
930
928
930
931
933
935
937
936
935
934
934
932
931
931
931
933
934
934
935
937
936
934
934
933
933
930
930
932
934
935
937
937
938
937
936
935
935
934
933
937
935
937
937
938
938
938
937
937
934
936
935
939
940
941
941
943
940
938
936
933
927
925
925
926
925
928
932
931
932
931
932
931
927
930
930
933
933
937
938
938
939
939
938
936
934
935
934
933
936
937
938
940
939
940
937
936
936
937
937
935
932
926
918
907
893
884
880
879
883
895
910
926
939
950
955
954
945
939
933
927
924
924
930
928
933
936
937
938
937
937
938
936
935
935
934
933
935
938
939
940
937
938
938
937
934
934
935
934
934
937
938
939
936
934
935
935
934
932
934
934
935
935
934
939
936
938
935
933
933
929
930
930
932
932
933
936
933
934
932
932
928
930
929
928
928
931
932
932
933
929
931
928
926
924
926
925
927
928
930
929
929
929
926
925
921
921
920
920
921
921
922
925
924
924
922
920
919
920
920
922
921
925
928
927
928
930
927
927
927
927
927
930
931
932
932
934
934
933
935
933
932
932
929
932
934
935
937
937
938
938
935
933
933
933
930
933
935
934
939
940
940
939
937
936
935
932
934
933
935
938
938
938
939
938
938
936
935
933
933
936
935
935
939
940
940
939
938
937
938
935
936
937
939
940
944
943
941
941
938
936
930
929
925
926
928
928
929
930
931
932
930
931
927
927
928
929
931
935
937
939
942
939
941
937
935
936
937
938
938
939
939
939
942
940
939
939
936
936
938
938
938
941
942
940
931
924
915
898
887
876
874
877
887
904
919
939
951
959
957
952
941
934
926
925
926
929
932
938
939
937
936
937
934
933
932
937
936
938
940
940
941
940
938
938
937
935
935
937
938
940
938
939
940
938
939
938
935
934
934
934
937
937
939
940
939
938
939
937
935
933
932
933
934
936
935
937
937
935
936
934
930
930
929
930
930
933
936
934
934
931
931
930
927
926
925
927
926
929
930
932
930
930
928
926
924
923
922
925
924
923
924
925
925
925
924
921
922
918
918
920
920
923
924
926
926
927
927
925
925
923
926
927
927
931
930
934
934
933
934
934
932
931
929
932
932
933
934
936
936
935
934
935
932
931
932
932
935
935
935
935
936
936
936
934
932
931
931
933
936
936
938
938
939
938
940
937
935
932
932
937
936
938
937
940
939
938
939
939
937
934
932
936
939
938
942
942
944
943
941
938
934
933
929
929
928
926
930
929
931
930
932
931
929
929
929
929
931
934
934
941
941
938
940
940
936
934
934
935
937
937
940
937
940
941
940
937
936
935
935
935
935
940
938
940
938
929
920
907
890
877
869
869
877
891
907
927
943
955
963
962
954
944
933
929
927
927
931
935
937
937
936
936
935
934
933
935
936
936
941
940
942
940
938
938
937
935
933
936
936
938
938
940
939
939
937
935
935
934
933
935
934
936
939
938
939
937
937
935
933
932
930
932
933
933
935
935
937
935
935
932
931
930
928
929
929
932
932
933
933
932
930
929
927
925
927
925
926
927
928
929
928
928
927
925
922
924
924
924
921
923
925
925
925
923
922
922
919
917
917
920
918
921
923
924
927
924
926
926
927
926
927
927
928
932
932
933
937
936
935
935
932
930
929
933
934
935
937
938
939
939
939
938
935
934
932
935
936
937
938
941
940
941
939
940
937
934
934
938
937
937
939
939
942
941
941
939
938
938
936
938
938
941
940
942
944
942
940
940
939
937
938
939
941
945
944
947
947
946
945
940
936
935
930
932
932
932
930
935
935
934
937
936
936
932
933
935
937
937
940
941
944
941
942
939
939
938
938
940
941
943
943
942
943
942
944
943
941
939
938
936
939
942
944
941
939
929
921
910
896
888
880
883
890
904
922
939
956
962
966
963
958
945
938
933
929
931
934
936
939
940
940
940
936
937
937
938
939
940
943
943
943
942
942
940
938
936
935
937
938
939
941
944
943
942
942
939
937
936
935
938
937
936
938
939
941
940
940
938
938
932
934
935
936
939
938
940
938
936
938
934
934
931
931
928
932
934
933
935
935
934
933
932
931
928
927
927
929
930
930
931
933
931
931
929
926
926
923
925
926
926
925
926
928
925
925
923
922
922
922
922
923
925
927
930
930
928
930
928
928
929
928
930
932
933
935
937
938
938
938
938
936
935
934
935
937
938
939
942
941
940
942
940
939
938
936
939
939
941
942
941
945
944
942
943
940
938
938
938
939
941
942
943
945
944
944
945
942
939
939
941
940
940
942
944
945
944
943
942
942
941
939
939
942
944
945
948
948
948
948
948
946
943
942
942
941
939
938
939
937
935
936
936
934
932
930
934
935
935
939
941
943
943
944
943
941
940
940
938
939
941
946
944
947
945
943
940
940
940
938
940
939
941
946
946
949
944
937
925
914
899
889
884
885
894
907
924
941
955
962
964
957
947
936
931
929
929
933
934
939
939
942
941
940
935
936
939
938
940
939
941
944
943
942
942
939
938
938
937
938
940
940
942
943
943
942
941
937
937
936
938
937
937
938
941
941
941
941
938
936
933
932
933
933
934
935
938
939
938
935
934
933
932
929
929
931
932
932
934
935
933
933
932
930
927
928
927
928
928
930
931
932
932
930
928
925
924
923
924
926
925
926
926
927
925
926
924
922
920
919
921
923
924
924
926
928
927
929
925
925
924
923
926
928
927
929
930
934
933
932
932
931
930
929
929
931
931
932
934
934
936
934
935
933
930
931
931
931
931
934
934
937
936
936
933
931
931
931
932
934
933
937
934
938
938
937
936
935
932
931
933
932
934
937
937
938
938
935
936
936
932
934
935
935
936
939
944
941
942
942
941
939
937
934
934
932
931
927
929
930
929
928
927
929
927
925
927
928
927
933
934
936
936
937
935
936
933
935
934
934
934
936
938
938
938
938
938
935
933
931
934
934
935
938
939
942
942
942
939
930
920
907
895
886
879
880
884
893
906
919
932
942
946
944
939
931
924
923
924
929
929
932
930
931
930
930
930
930
933
933
936
938
936
936
936
934
933
932
932
933
934
937
935
938
937
936
935
932
931
928
930
931
931
932
934
937
935
935
934
933
931
929
928
928
931
932
934
936
934
934
932
930
927
926
927
927
928
930
930
932
931
930
926
926
925
925
925
924
925
926
927
928
926
926
924
923
921
920
921
919
923
923
924
924
923
921
919
918
915
915
914
914
916
917
919
920
920
920
918
918
916
916
917
918
920
922
925
927
924
925
924
923
922
922
923
924
926
929
928
929
929
927
928
927
924
926
924
927
929
931
933
934
933
933
931
931
930
929
929
929
930
932
933
933
929
933
931
930
928
927
927
928
931
933
932
933
934
932
931
931
928
930
928
928
930
932
932
932
933
934
933
931
932
930
931
933
933
934
937
935
934
931
929
926
922
920
920
919
924
923
926
928
927
926
926
925
927
926
929
930
930
931
935
936
935
933
933
931
930
932
928
930
932
933
934
936
934
933
933
934
932
932
933
933
934
932
925
919
907
895
884
876
871
874
883
891
904
918
933
943
948
947
942
931
925
921
918
918
920
924
927
930
931
932
932
928
928
925
930
927
931
933
933
934
933
932
931
930
930
930
931
930
932
933
933
935
932
933
931
930
928
929
929
928
930
930
932
932
930
930
932
928
927
927
926
925
927
930
929
930
930
930
928
926
925
924
922
924
924
924
928
927
927
925
925
924
921
920
918
921
921
921
922
925
924
922
920
917
916
915
914
915
917
917
918
917
916
916
914
913
911
913
911
914
913
915
918
918
918
920
916
920
917
917
915
918
920
922
923
925
925
923
924
924
925
923
923
924
925
925
929
928
928
929
928
928
925
925
925
925
926
927
929
929
930
931
931
928
927
927
927
927
928
928
932
934
932
931
930
928
926
926
924
925
927
931
932
935
933
931
932
930
929
928
930
932
931
933
935
934
934
932
929
926
922
918
919
919
920
922
923
924
925
924
924
923
922
923
923
926
927
929
929
932
933
934
931
933
929
930
926
930
929
930
932
934
935
931
933
929
928
929
929
929
929
927
919
910
899
887
878
872
875
880
890
904
921
935
946
950
946
939
931
924
919
919
919
922
925
926
929
929
930
930
931
930
929
926
926
927
929
930
933
934
934
933
932
932
929
930
929
929
930
931
931
932
931
931
931
929
926
927
926
927
926
928
931
931
932
930
929
926
925
924
925
924
924
929
929
929
929
926
927
925
921
921
922
922
921
923
925
925
926
924
922
920
920
916
919
919
922
921
922
922
921
922
918
920
917
914
915
915
915
915
916
918
916
915
915
913
911
911
911
912
914
916
917
918
919
919
919
920
917
918
917
918
920
923
925
926
926
927
925
924
924
923
923
924
925
926
927
928
931
928
928
927
925
925
924
923
926
926
928
930
929
929
929
928
926
926
925
926
928
928
931
932
932
931
929
928
928
925
925
927
928
929
931
932
932
928
929
928
926
928
929
929
931
932
935
934
936
933
928
925
922
918
916
917
917
917
920
923
924
924
922
923
920
920
920
923
926
929
930
933
932
931
931
928
928
927
925
928
927
931
929
931
932
930
929
930
928
928
926
927
922
915
906
892
882
872
869
872
879
894
908
927
938
948
948
943
936
930
923
917
918
919
920
921
925
926
930
931
929
930
930
928
927
925
924
927
927
929
931
932
933
932
932
928
927
926
924
927
929
929
928
930
931
931
930
927
926
926
923
924
927
927
928
929
929
926
926
926
923
922
922
921
924
925
927
927
926
924
924
921
921
919
918
920
923
920
922
922
923
922
921
920
916
915
915
914
917
917
916
919
916
917
914
914
911
908
908
910
910
908
913
911
912
911
915
911
910
910
908
911
911
915
915
916
917
916
918
917
916
916
914
917
917
921
922
924
921
924
922
923
920
919
919
921
923
922
925
925
927
925
924
925
925
920
918
923
924
925
925
926
929
926
927
925
926
921
923
924
923
925
926
930
928
928
929
924
926
923
923
921
926
926
928
930
930
932
931
929
929
927
927
926
925
924
925
923
924
920
921
917
919
916
917
917
919
920
922
924
926
924
926
925
926
926
924
924
925
929
928
928
929
930
927
924
925
923
923
923
923
926
927
929
930
931
929
926
919
912
899
888
877
866
862
864
871
885
899
915
929
939
942
942
937
931
924
920
919
916
919
921
923
922
921
923
924
927
927
929
928
929
928
927
927
923
926
924
927
928
928
929
930
928
926
926
926
925
925
925
923
924
926
928
928
925
927
925
922
922
923
922
920
924
923
925
927
924
923
922
922
920
920
920
921
921
922
923
923
923
920
916
918
918
915
918
919
918
919
920
919
919
917
917
914
910
912
912
911
910
912
913
914
913
913
910
908
907
905
907
906
909
909
912
912
911
912
910
909
908
908
910
909
913
916
918
918
920
919
917
918
916
915
919
919
920
922
924
926
926
924
923
921
920
924
921
923
926
926
927
928
925
927
924
924
923
923
920
924
926
927
928
929
929
928
928
927
924
924
924
926
927
927
930
931
930
930
927
925
925
925
925
927
929
930
930
933
933
933
931
930
928
930
930
929
928
926
927
928
926
922
921
918
916
916
917
920
923
924
924
927
925
925
924
925
924
925
925
926
929
931
931
932
931
931
928
928
925
925
928
928
928
930
932
933
931
929
929
928
927
926
924
919
910
899
890
880
875
873
876
885
896
911
928
938
950
952
949
944
934
930
922
922
917
919
922
924
927
929
929
931
931
930
929
928
929
926
928
928
928
931
933
933
933
930
930
929
927
926
926
927
929
931
933
933
930
932
929
927
925
924
926
927
928
927
928
929
929
929
926
925
923
922
924
923
925
926
927
925
927
926
923
921
919
918
918
920
921
921
921
922
922
921
919
920
915
918
917
917
919
920
920
921
919
918
918
915
915
913
913
911
917
915
917
915
917
917
913
915
912
913
914
915
915
920
920
923
924
921
921
921
919
920
921
922
924
926
927
929
927
929
929
927
924
926
927
927
927
928
931
930
931
930
930
928
929
928
927
929
930
930
932
932
934
933
931
930
930
927
932
932
932
933
935
934
933
933
930
930
927
929
929
930
930
935
936
937
935
935
936
936
931
934
936
934
934
934
933
934
929
927
924
922
921
922
921
924
925
928
928
929
931
929
929
928
929
927
930
930
931
933
934
933
933
933
930
932
930
928
930
931
931
935
935
934
934
937
936
934
928
922
913
904
895
885
880
883
888
902
914
926
940
947
949
947
943
936
931
926
923
923
924
923
925
927
926
924
930
929
931
933
930
931
930
928
928
926
926
927
928
930
931
930
929
931
930
927
927
925
926
926
927
930
930
931
926
929
927
926
923
924
923
923
923
928
925
925
926
927
924
920
919
919
920
919
922
922
923
924
923
923
919
918
916
914
915
915
916
918
918
920
919
921
917
914
915
912
913
912
915
915
915
916
915
915
912
911
911
910
911
910
910
912
914
915
913
914
915
914
914
914
913
916
918
921
921
921
921
921
919
921
923
919
920
922
923
924
925
927
924
925
924
923
922
921
922
923
924
925
926
930
926
927
927
924
923
924
922
924
926
926
928
929
927
929
928
927
923
923
924
925
926
928
928
930
929
929
929
926
926
925
927
928
928
930
933
933
934
932
932
930
931
930
928
926
927
925
924
924
923
919
921
918
919
920
919
918
919
922
925
927
928
928
925
927
927
927
927
924
928
929
931
931
932
932
931
929
928
927
926
929
928
930
931
932
934
935
934
931
924
915
903
889
880
875
873
878
885
899
913
925
935
939
937
929
921
918
914
917
919
923
924
922
923
922
920
923
924
927
929
929
929
927
927
925
924
922
924
925
925
926
928
929
927
928
927
926
922
923
921
923
924
926
926
928
928
927
923
924
921
920
920
921
922
922
923
924
923
923
923
921
917
916
915
919
920
920
919
921
920
918
917
916
914
912
915
915
916
917
917
919
917
915
917
913
913
910
912
911
911
912
911
911
912
909
908
908
906
906
907
905
907
909
910
911
914
913
913
911
911
913
912
913
916
919
921
923
922
920
920
918
919
917
919
918
920
921
922
925
922
921
922
921
920
920
921
920
923
923
925
925
925
925
923
922
922
920
921
922
921
924
925
925
926
925
923
922
921
918
922
921
922
924
925
927
926
925
924
924
925
922
924
922
927
929
930
929
929
926
921
919
914
913
911
912
913
917
919
921
919
918
919
916
916
918
919
921
923
924
927
928
929
925
925
923
922
922
921
923
923
924
925
928
926
927
927
925
925
926
923
926
925
921
912
902
890
875
867
862
864
874
885
903
920
932
943
942
937
926
919
911
908
909
911
914
919
921
923
924
923
924
922
922
918
917
919
921
921
923
925
927
926
925
923
922
917
919
917
918
919
921
923
925
921
922
923
918
921
921
917
918
919
922
921
923
922
922
922
919
916
915
913
915
917
917
918
921
920
918
918
915
915
912
911
913
914
914
916
917
916
915
916
914
912
908
909
909
912
913
912
915
914
911
912
909
906
907
905
903
905
907
909
906
907
908
907
906
905
905
907
907
909
910
912
913
913
915
914
914
911
913
912
913
916
916
917
920
923
921
920
918
916
916
917
918
918
920
921
923
922
920
921
919
917
917
919
919
920
920
922
924
923
921
921
921
919
919
917
920
921
924
925
924
925
924
923
922
919
920
919
918
922
922
923
924
923
925
924
925
923
924
923
926
923
924
926
924
922
919
917
914
911
911
910
913
915
917
917
918
921
919
918
921
919
918
922
922
923
925
926
929
928
927
928
924
923
922
922
923
925
926
927
928
928
927
926
929
926
926
924
921
912
904
891
880
874
865
866
871
882
898
912
929
941
946
942
937
926
919
916
914
914
915
918
919
923
925
925
927
928
926
927
924
926
925
923
922
925
925
926
927
926
928
928
925
924
921
922
922
925
925
925
930
928
927
925
926
924
923
920
922
922
923
927
925
926
926
926
923
919
918
920
920
918
920
921
923
922
920
921
917
917
916
914
915
918
919
921
920
920
920
918
915
915
914
913
913
913
916
916
916
918
912
913
911
907
907
905
907
906
908
907
909
910
907
906
908
905
905
905
907
908
912
913
913
915
914
913
914
914
910
911
914
915
919
919
921
923
920
920
919
916
917
916
919
918
921
922
920
924
922
920
918
916
918
917
917
920
921
922
922
924
923
924
922
919
921
918
921
921
924
923
925
925
923
924
921
921
920
919
921
921
923
924
926
927
927
928
929
924
925
924
923
922
919
919
918
917
915
915
914
914
912
913
912
914
917
919
923
924
923
924
925
922
920
919
921
922
925
925
926
927
924
924
923
923
921
920
922
926
927
928
929
929
927
922
913
899
884
870
860
856
860
869
885
904
920
932
942
940
938
927
922
914
914
915
918
922
922
923
922
919
918
919
918
923
923
923
925
927
926
923
923
920
920
920
920
920
922
924
926
923
921
922
921
918
918
919
920
919
921
922
921
923
920
922
919
918
918
916
916
915
918
919
919
922
920
920
916
913
913
914
914
914
914
916
917
918
916
917
913
914
911
911
912
912
911
916
915
915
914
911
910
909
908
910
908
908
908
908
907
908
908
906
903
904
904
901
900
903
901
902
905
907
905
905
903
902
902
902
903
904
907
907
912
913
913
912
911
909
910
909
911
912
914
916
917
920
921
919
915
916
915
915
913
915
917
918
921
921
921
921
920
917
917
915
916
917
919
920
921
924
923
921
920
920
917
916
920
918
921
922
925
926
923
924
922
922
919
918
918
919
919
923
921
925
925
927
924
922
923
921
920
923
921
920
921
922
919
916
915
911
913
912
913
912
916
918
917
919
922
919
920
921
921
921
922
924
925
926
926
928
926
928
925
923
922
922
923
924
924
926
929
927
925
926
926
924
920
914
907
897
886
874
864
859
859
868
879
895
912
930
939
946
943
936
928
921
914
911
913
913
915
916
918
917
921
922
921
925
922
921
922
920
919
917
920
919
920
924
924
924
922
924
921
918
918
917
919
918
918
921
919
921
920
920
918
916
916
914
911
916
916
916
919
918
919
917
915
915
911
912
912
912
914
915
915
917
915
914
912
911
909
908
909
909
911
914
912
913
911
911
909
908
908
904
905
906
905
907
909
907
906
905
902
899
900
898
899
898
901
904
904
907
905
903
902
902
902
902
903
903
908
908
911
914
913
911
910
910
910
909
912
913
914
917
918
919
918
918
919
916
915
914
915
916
920
922
922
922
919
923
920
917
917
915
917
917
919
918
921
924
923
923
922
921
918
918
918
920
921
921
922
924
922
921
919
919
918
918
918
921
921
922
925
926
925
927
925
921
923
922
923
925
924
923
922
921
917
916
912
910
910
908
910
914
916
917
917
918
919
919
919
917
919
920
919
919
924
926
925
926
925
927
922
922
921
921
920
922
924
923
925
925
925
926
924
925
923
924
921
915
912
903
889
879
868
866
867
874
884
898
916
931
943
950
950
943
936
924
919
913
912
912
915
918
921
922
925
925
924
924
925
922
919
919
921
921
922
923
925
924
925
925
922
921
919
917
920
920
921
922
924
924
924
924
921
922
920
918
919
921
920
922
924
922
924
921
921
919
915
916
916
916
918
916
920
919
918
919
916
915
912
913
913
912
915
914
915
914
916
914
912
913
909
908
908
909
912
912
913
913
911
911
908
907
904
904
904
903
907
906
909
911
910
909
909
907
907
906
907
909
913
914
916
918
917
918
917
917
915
915
919
918
921
923
922
924
922
922
921
921
919
917
921
922
921
923
925
926
927
926
925
922
921
917
920
920
921
924
924
927
927
926
925
924
921
921
920
921
924
925
927
927
925
926
925
924
924
922
922
924
923
927
929
932
931
931
929
931
926
925
925
924
922
922
921
922
918
920
918
916
915
913
915
916
920
921
924
926
926
927
925
925
921
924
924
922
923
927
927
928
929
927
926
925
924
923
924
925
925
927
932
934
932
928
919
910
895
882
873
866
871
876
890
905
918
934
940
944
941
935
927
919
917
917
918
919
924
924
925
921
922
920
919
923
923
926
927
929
929
929
925
925
924
923
923
924
927
927
928
929
929
928
925
925
922
923
923
922
923
923
926
927
927
924
925
923
922
919
919
920
922
924
922
926
922
922
921
916
917
916
918
916
919
919
920
921
921
920
917
916
914
914
914
914
916
916
916
919
919
917
916
913
910
910
910
913
911
914
912
914
911
913
910
907
903
904
905
905
909
908
909
910
911
912
910
909
909
910
909
909
913
915
916
918
921
917
915
916
914
914
915
918
919
919
923
923
922
924
920
920
919
919
918
919
922
921
923
924
924
921
922
923
920
921
920
920
921
924
925
927
926
924
926
922
922
921
920
922
922
925
924
927
925
924
925
924
922
922
923
926
927
928
931
931
932
931
928
921
920
915
914
913
914
916
918
918
920
918
918
916
915
916
918
920
923
924
927
928
928
927
927
925
924
923
924
925
924
925
925
929
929
929
929
925
924
924
927
928
930
927
924
916
903
890
876
868
865
868
878
892
909
923
936
943
943
932
923
914
910
908
910
915
919
920
922
926
925
925
923
920
922
919
920
922
921
923
924
926
925
925
924
923
922
921
920
922
923
924
924
926
925
924
924
921
921
919
920
920
921
923
922
924
925
923
924
920
918
916
917
916
915
919
921
920
922
918
918
918
915
914
912
913
915
916
917
918
920
918
920
916
914
913
912
914
913
914
915
917
916
914
915
911
909
908
907
906
907
907
908
909
909
908
907
908
905
905
907
906
908
909
912
914
916
915
913
914
912
912
916
914
916
917
919
921
921
921
922
921
917
918
918
919
922
922
924
922
923
923
922
920
920
918
920
919
922
923
924
926
926
925
925
923
920
921
920
922
922
923
925
928
927
926
924
922
921
921
920
922
922
924
925
927
924
925
926
924
922
924
924
925
924
929
929
930
928
923
921
918
914
909
910
912
911
913
915
917
918
919
916
915
914
914
915
918
919
922
924
925
925
923
924
920
922
920
921
923
924
924
924
925
925
925
925
920
920
920
922
924
924
924
918
906
897
883
871
860
855
864
874
888
903
924
936
944
941
932
925
915
908
906
905
912
915
919
920
921
921
919
919
920
918
919
918
920
922
920
922
925
925
923
922
920
920
917
917
919
920
923
923
924
924
924
922
921
918
917
916
919
920
922
922
923
923
922
923
918
917
915
916
915
917
920
919
922
922
918
917
917
915
913
914
913
914
914
919
916
916
915
915
914
914
910
911
909
912
912
912
915
915
911
911
911
908
906
907
906
906
908
906
909
909
906
907
903
903
900
901
902
903
904
906
908
909
908
911
909
907
908
909
911
910
914
916
916
917
916
917
913
912
913
915
916
915
917
918
918
921
921
920
918
915
915
916
917
918
920
922
920
922
920
921
919
917
918
915
916
919
920
920
924
923
920
920
921
917
918
916
920
920
922
922
924
924
924
923
921
922
918
918
919
921
921
923
925
925
927
926
925
924
923
919
917
915
917
916
915
913
912
912
911
911
910
911
912
912
914
917
918
921
921
924
922
922
921
919
919
921
923
923
924
924
924
923
924
922
918
920
920
922
923
924
926
928
928
928
924
918
908
896
884
871
860
855
858
863
877
895
910
925
936
939
936
929
920
914
913
912
912
916
917
918
917
917
919
918
918
922
924
924
923
923
921
918
918
918
920
920
921
923
924
922
923
921
922
917
916
916
917
919
918
919
923
922
922
922
919
916
913
916
916
916
920
920
920
919
918
918
915
916
912
913
912
915
916
917
916
915
915
915
913
912
911
909
909
913
911
913
913
913
912
912
910
908
909
908
908
908
909
912
910
910
908
908
905
905
903
903
903
901
902
903
904
904
903
903
902
900
902
901
902
904
905
907
909
909
908
908
910
908
907
908
909
909
914
915
916
919
917
915
916
915
913
912
914
917
916
919
918
920
919
917
914
914
915
913
917
915
917
919
919
921
921
920
917
917
916
917
915
917
918
919
919
922
921
920
919
917
916
918
916
916
921
921
922
924
922
923
922
922
920
920
921
921
920
921
917
916
913
912
911
909
909
908
910
910
910
913
915
916
918
918
918
918
917
916
916
918
920
918
923
924
923
921
920
921
919
918
918
918
920
921
922
926
923
925
922
918
911
898
883
868
858
850
850
858
873
889
907
924
933
936
936
927
917
912
909
908
909
911
914
914
915
911
912
915
919
920
920
924
920
921
919
918
915
915
915
918
920
920
922
921
919
918
919
917
913
913
915
918
918
919
919
919
915
920
916
916
913
914
915
913
916
917
917
918
915
915
914
913
910
909
910
910
915
914
915
916
913
913
912
912
907
907
908
908
910
911
912
913
913
909
908
907
906
905
904
904
906
907
908
906
905
906
903
900
898
898
899
898
899
902
904
905
902
904
904
902
902
898
903
904
907
909
911
913
912
911
909
906
906
907
910
910
914
914
917
917
917
917
915
913
912
914
913
913
914
918
918
918
920
919
917
915
917
914
914
916
918
917
919
920
919
921
918
918
916
917
916
916
916
919
920
920
922
921
919
918
916
914
915
917
918
920
920
922
922
924
921
922
917
916
913
914
913
911
912
911
910
912
910
910
910
908
910
911
912
912
915
918
919
921
919
920
915
913
916
918
918
919
920
921
920
921
918
918
918
916
917
917
918
921
921
922
921
916
906
894
876
863
851
848
850
863
879
900
918
935
943
941
934
922
913
907
905
908
910
915
917
919
917
916
917
915
915
917
918
921
920
922
921
919
921
919
917
917
917
919
917
920
920
920
921
918
919
917
914
913
916
915
913
916
919
917
918
917
916
913
913
911
911
913
912
915
916
916
913
915
912
910
910
906
907
908
909
910
911
910
912
911
909
907
905
906
905
904
908
908
909
907
908
907
904
902
900
900
899
901
902
902
901
904
904
903
903
901
899
899
900
902
901
903
906
908
909
910
908
909
906
908
908
911
913
914
916
915
917
917
915
914
914
913
916
915
917
917
918
922
920
922
919
918
917
916
917
919
921
919
922
923
921
922
920
920
917
916
918
919
918
919
922
924
923
921
922
920
919
918
919
919
922
923
923
924
926
926
925
923
924
924
925
927
927
928
928
930
926
921
921
916
915
912
910
912
914
917
918
919
919
920
919
917
917
919
921
922
923
925
928
927
925
926
927
925
924
922
922
923
924
924
924
927
923
923
924
923
922
922
921
918
914
907
897
886
874
868
866
871
882
896
911
928
943
949
946
942
933
924
916
912
910
911
915
917
919
919
921
924
924
923
922
920
921
920
919
918
922
923
924
923
925
925
922
922
918
919
918
920
921
921
925
924
923
922
921
918
916
915
917
916
918
920
920
922
921
920
920
918
916
914
915
916
914
918
917
918
919
917
917
914
912
911
911
911
913
912
912
915
916
912
912
912
910
907
908
907
909
910
911
909
910
908
906
907
905
904
904
903
905
905
909
910
910
910
911
909
908
909
907
912
913
914
918
918
920
920
918
918
915
915
917
917
920
919
920
923
923
923
922
923
919
920
918
921
921
920
924
925
927
923
924
920
919
918
919
919
921
924
924
926
926
926
923
921
921
919
920
921
924
924
926
927
927
925
923
922
922
920
919
922
926
927
928
931
931
930
928
926
926
923
920
918
920
918
918
918
915
917
917
916
914
914
914
913
915
916
918
922
922
920
923
921
920
918
918
918
919
921
922
926
924
923
922
917
918
917
915
920
920
924
926
928
925
922
914
905
895
881
874
867
863
868
876
888
901
916
928
936
937
933
925
919
911
910
910
913
915
916
915
915
914
913
915
917
917
917
919
921
920
919
918
916
915
916
917
913
917
918
919
920
919
919
919
917
915
914
913
916
917
917
918
920
917
919
917
914
913
914
911
910
913
914
915
915
915
913
913
910
912
909
908
910
911
911
912
913
912
912
910
910
904
906
906
907
908
908
909
910
911
910
908
908
907
904
903
904
905
905
908
907
906
904
904
901
899
899
900
900
898
902
905
904
905
906
903
903
904
900
900
905
906
908
910
912
912
912
913
912
908
909
910
910
911
913
916
916
918
914
914
914
913
912
913
914
916
915
917
918
918
918
918
915
914
914
912
912
915
916
917
918
919
919
919
917
916
915
913
917
917
917
920
921
921
920
918
917
917
918
917
920
920
920
923
923
923
918
917
913
910
907
905
907
907
910
910
912
912
911
910
910
908
911
913
914
916
920
921
922
920
920
919
919
917
917
913
918
917
918
918
920
921
920
920
920
921
920
920
920
914
908
900
889
878
866
862
861
866
876
889
904
919
929
932
932
921
914
906
902
902
904
909
910
911
914
916
914
917
916
917
916
913
914
913
915
915
917
917
920
919
918
919
917
913
912
914
915
916
916
918
918
917
917
917
916
914
915
914
913
913
916
917
917
918
916
913
912
912
911
910
910
911
912
911
912
914
912
911
910
907
909
907
910
907
909
912
912
913
911
909
907
905
904
906
907
907
906
906
909
910
906
907
904
902
899
898
899
900
901
902
900
903
903
900
899
896
896
898
897
898
901
903
904
907
906
907
907
906
903
905
904
907
909
913
912
913
913
914
912
910
910
908
911
910
913
914
915
917
915
917
913
912
911
908
914
910
914
914
916
917
917
914
916
914
915
911
914
914
915
917
919
918
918
918
916
915
914
912
915
915
916
918
921
918
918
918
916
917
915
915
916
918
918
922
922
923
921
918
915
912
907
904
905
904
906
909
909
910
909
910
907
907
908
905
910
913
914
918
917
921
919
917
918
917
915
915
915
916
915
917
918
920
917
919
917
915
914
916
918
918
917
909
899
886
871
861
853
854
858
869
888
908
924
935
935
931
920
912
904
902
899
903
910
908
915
914
916
917
915
915
915
914
913
913
914
917
917
918
920
921
919
918
918
916
915
913
915
916
917
918
919
920
917
917
915
913
913
912
913
914
912
914
915
916
916
914
913
909
907
908
908
907
911
913
913
913
911
910
909
908
908
904
907
908
910
909
910
911
912
910
908
906
905
905
905
905
908
908
909
907
909
907
907
903
901
900
900
902
900
901
902
902
902
900
898
897
897
896
895
900
903
903
905
908
905
904
905
904
903
903
904
906
907
908
913
912
915
913
912
908
908
908
908
910
912
914
915
917
914
914
912
913
911
912
913
912
914
916
915
918
916
917
914
912
912
911
913
914
913
915
917
917
915
915
915
915
913
912
915
915
915
916
918
919
916
915
916
913
913
912
915
913
915
917
919
921
922
921
919
920
919
915
916
916
913
911
913
910
908
907
906
904
903
904
904
907
906
908
911
913
913
913
914
913
913
913
913
915
917
917
917
919
917
918
915
915
913
911
914
916
916
917
918
918
920
922
921
916
912
901
890
876
863
852
850
849
859
875
893
911
926
934
933
928
919
913
904
904
907
909
912
913
912
912
912
913
915
918
916
918
919
917
916
914
913
912
914
915
917
918
919
921
918
919
917
917
914
913
913
913
915
918
919
919
917
918
913
914
913
911
911
912
912
913
914
914
912
912
913
910
908
906
907
907
909
910
912
909
909
910
906
905
903
905
904
905
906
907
907
907
906
906
904
903
901
901
902
898
901
900
902
900
900
898
898
896
894
893
894
895
896
899
902
902
903
903
903
901
901
901
902
903
905
906
909
910
906
909
910
908
908
907
907
909
912
914
915
917
915
914
911
910
911
909
912
912
911
912
914
916
915
914
913
913
911
910
911
913
913
913
915
918
918
917
915
915
911
910
912
914
916
916
918
918
915
917
915
915
913
912
915
916
917
920
921
924
922
919
914
912
908
902
903
902
904
906
908
909
909
907
906
906
904
906
909
910
913
917
918
920
918
920
917
915
913
910
914
914
915
916
918
919
919
917
914
914
914
914
915
917
916
908
900
890
872
855
843
838
841
854
871
894
914
930
940
941
932
920
908
902
898
895
901
905
910
911
915
915
914
914
912
912
912
912
912
912
916
915
916
918
917
917
915
914
912
910
913
914
914
915
916
917
915
915
915
915
910
909
911
911
912
912
914
917
915
914
911
911
909
907
909
910
911
912
911
911
911
913
908
907
904
903
903
903
906
905
907
909
907
907
905
902
903
901
901
902
902
904
905
904
903
905
900
899
896
895
895
895
894
896
898
899
899
895
895
894
893
893
894
897
900
899
900
905
903
904
903
904
904
901
904
905
906
909
911
912
912
912
911
909
909
908
907
910
910
911
913
915
913
914
915
913
913
909
908
911
911
914
914
917
915
915
915
914
913
911
912
911
913
915
916
915
918
917
915
914
912
910
912
914
914
915
915
917
917
918
919
917
917
915
916
915
918
917
918
917
915
912
909
906
903
901
903
905
905
908
911
912
913
912
914
913
912
910
913
914
915
916
920
920
918
918
917
917
916
913
915
916
914
918
918
920
921
918
920
918
915
914
907
898
888
878
863
855
851
855
867
880
899
916
931
938
937
932
924
916
910
904
906
908
911
912
912
913
913
917
916
917
917
916
914
914
913
910
913
913
914
914
916
917
917
916
917
915
912
910
912
911
913
913
914
918
913
913
913
911
911
907
911
909
911
913
913
913
914
913
909
910
907
906
908
907
907
907
911
911
913
910
908
908
903
904
906
904
905
906
906
907
905
906
905
902
900
900
899
900
900
901
902
905
903
902
902
900
898
898
897
897
898
901
902
903
902
902
903
903
901
903
903
904
906
908
911
911
911
911
911
913
911
910
910
911
915
914
916
917
917
918
915
916
913
911
914
913
915
917
919
919
920
919
917
917
914
914
914
915
916
919
918
920
920
918
918
916
915
916
915
916
918
918
919
922
922
921
920
919
918
916
917
916
920
920
924
924
925
924
923
923
922
920
919
919
918
917
917
915
913
912
911
910
909
911
909
909
912
913
914
916
917
917
919
917
917
917
916
915
917
920
921
922
921
922
921
918
919
918
916
916
918
919
921
923
922
924
924
921
914
905
892
880
868
860
857
862
871
886
902
917
929
936
937
933
925
916
912
911
908
910
915
915
916
915
914
917
916
917
919
922
921
921
920
919
917
915
915
916
917
919
919
920
920
919
918
917
915
913
914
916
915
915
918
920
917
916
915
914
913
911
912
912
914
915
914
916
915
914
913
911
910
910
908
908
909
912
914
913
911
911
911
909
906
907
906
906
907
910
912
911
913
909
908
908
904
904
904
903
904
905
907
908
906
905
903
900
898
898
896
900
897
899
900
905
902
903
904
902
899
901
902
900
904
907
906
909
910
908
908
908
908
907
907
908
912
913
915
914
916
914
917
913
912
911
911
911
912
915
915
918
918
917
918
916
915
913
912
913
913
915
917
917
919
918
917
915
915
913
914
913
915
916
919
920
921
918
918
915
917
915
914
918
916
919
919
922
924
920
919
919
921
919
919
919
921
922
923
927
926
923
921
916
913
910
908
908
907
909
913
915
914
914
914
911
911
910
912
914
919
919
921
922
921
922
922
921
917
917
919
920
920
920
925
922
923
922
921
920
918
919
920
923
925
927
925
918
909
893
880
866
855
853
856
865
877
894
913
928
941
938
930
920
911
903
901
904
906
914
915
918
918
917
918
917
917
918
916
920
919
921
922
922
921
921
919
919
921
917
915
918
918
918
920
920
922
921
919
918
916
917
914
916
917
917
918
920
920
918
918
915
914
914
914
914
913
916
915
916
918
918
915
912
912
912
910
910
910
914
913
914
915
912
911
910
907
907
907
911
909
909
911
912
910
910
909
907
905
904
904
902
902
903
903
904
906
900
903
902
899
899
901
899
900
903
903
906
906
905
907
905
904
904
903
906
908
910
913
915
914
914
914
912
911
910
911
909
912
912
915
917
915
917
916
917
913
912
911
911
914
916
917
917
918
917
917
913
912
912
912
913
914
916
918
918
918
918
916
914
914
912
911
914
914
915
916
918
918
917
917
916
915
914
914
916
919
921
922
924
925
922
919
916
913
910
906
905
905
906
909
910
912
910
910
907
906
906
906
911
911
916
917
919
920
920
917
916
914
913
914
915
917
917
917
921
918
918
918
917
917
917
917
920
921
921
913
904
892
874
858
846
840
845
854
870
888
910
928
941
942
934
922
913
904
901
899
903
907
911
916
918
917
919
916
917
915
913
915
917
916
917
919
921
921
918
919
917
913
912
912
915
915
917
916
919
919
917
917
918
914
914
913
911
912
914
915
916
918
917
915
913
910
909
908
910
909
909
915
914
914
912
913
910
909
908
907
906
906
910
909
911
909
910
908
906
905
902
903
905
903
907
906
909
907
906
904
904
902
899
899
900
900
903
900
902
902
900
901
898
895
895
893
896
896
900
900
900
901
902
904
901
901
900
901
903
904
907
910
911
911
913
913
913
908
909
909
911
911
911
911
915
915
914
915
913
911
911
912
913
914
915
916
918
916
915
918
915
915
912
910
911
912
915
916
918
918
916
915
917
913
911
911
913
914
917
917
918
920
918
919
917
915
913
913
915
914
917
922
922
922
923
925
925
921
918
914
912
910
908
908
907
909
910
910
910
907
907
905
908
907
913
913
916
918
920
920
920
917
915
913
916
916
917
920
919
921
917
919
918
917
915
914
915
916
920
923
924
922
914
901
882
865
849
840
838
847
859
882
908
928
939
944
938
925
911
902
901
901
906
911
916
918
919
917
914
913
913
912
914
915
916
919
920
919
919
918
916
915
914
912
916
914
917
919
917
921
917
919
916
914
915
914
913
914
914
917
917
916
919
916
913
911
910
911
911
911
913
913
914
913
913
912
911
910
908
908
911
909
911
913
912
913
912
910
911
908
907
905
905
907
909
909
911
910
907
907
906
902
901
902
897
899
900
900
902
901
898
899
898
897
896
894
896
897
898
903
901
904
904
904
904
904
902
901
903
906
909
909
912
912
911
913
914
909
910
909
910
910
912
912
915
918
915
915
913
913
912
911
911
912
915
915
917
916
916
915
916
913
913
913
913
914
916
917
918
919
919
919
916
914
916
914
913
915
916
917
919
920
917
917
917
916
913
913
913
915
919
919
922
923
923
923
921
918
911
909
908
907
904
906
908
909
910
910
908
907
906
906
906
908
910
915
917
918
917
920
918
916
914
913
917
915
916
919
921
923
921
917
918
918
916
915
917
920
922
920
918
908
892
876
856
842
835
840
854
875
900
923
942
952
945
933
921
910
902
901
906
909
915
916
920
922
919
922
917
918
914
916
916
916
919
919
921
924
922
921
920
920
918
916
917
917
917
918
920
921
921
920
916
915
914
914
915
914
917
919
918
919
919
917
915
914
914
912
914
913
915
914
915
916
913
913
913
913
911
910
911
910
913
912
914
914
913
913
911
910
910
906
907
907
907
909
910
911
911
908
906
905
903
901
899
898
901
901
902
904
901
900
899
898
897
897
899
899
902
904
907
906
907
908
906
907
905
905
905
908
909
911
915
914
914
915
914
915
912
911
911
913
914
917
918
918
919
917
916
915
914
915
914
915
916
918
918
919
918
916
917
916
913
914
914
915
914
917
919
921
919
920
917
916
913
913
914
914
919
921
920
920
920
920
917
916
916
914
915
917
919
921
922
927
926
925
922
921
919
915
912
909
910
910
910
911
911
911
909
911
908
906
908
909
911
914
917
920
922
922
921
921
918
917
917
919
920
920
920
922
923
922
921
921
921
919
918
917
921
921
925
927
925
924
918
908
894
878
862
849
844
845
857
877
899
920
939
948
949
943
930
921
912
907
907
910
913
916
917
915
913
914
913
914
917
919
921
922
921
919
920
916
916
915
916
918
919
919
922
920
921
921
921
919
916
916
915
917
916
918
918
920
920
919
917
916
916
913
913
913
913
917
914
917
916
914
914
911
909
909
909
910
911
910
912
913
912
912
912
909
907
906
905
906
907
908
910
908
908
905
904
905
901
900
900
901
902
905
904
903
903
902
900
899
898
896
899
899
901
901
906
906
907
908
908
907
904
905
908
909
910
914
918
918
917
918
916
915
914
913
915
915
916
918
920
920
920
919
917
918
916
917
914
914
918
920
921
923
923
922
921
920
918
918
919
918
918
921
922
923
923
922
921
920
921
918
916
919
919
921
922
923
924
925
921
920
920
921
919
921
925
927
928
931
928
927
925
921
916
915
912
910
911
912
914
915
917
916
915
914
915
913
913
916
919
921
921
923
924
926
924
922
919
922
922
920
921
924
925
926
925
925
925
921
922
919
919
920
923
924
928
929
925
919
907
893
877
861
853
851
856
866
882
900
919
934
943
947
940
932
923
915
912
912
912
914
917
918
918
915
915
916
916
916
920
923
923
923
924
923
922
921
919
917
918
917
920
920
922
922
922
923
921
919
920
917
915
916
920
920
919
921
924
921
920
917
914
915
913
914
916
915
917
917
920
917
917
915
916
912
911
912
913
915
917
916
915
916
913
911
911
909
910
911
911
912
912
913
914
912
911
910
910
907
907
906
908
908
911
912
909
908
908
905
903
901
899
902
903
905
905
906
906
907
904
905
902
904
904
904
908
908
913
914
914
915
914
912
911
912
913
914
914
919
919
920
920
919
918
919
917
915
916
917
920
919
920
922
919
920
919
918
916
918
916
919
921
920
922
924
923
921
919
920
919
919
920
921
919
923
924
923
923
922
923
922
920
920
920
921
921
923
923
926
926
927
926
926
922
925
925
924
925
923
923
924
921
918
915
913
911
908
911
913
914
914
915
916
918
919
919
917
917
917
917
919
922
924
925
925
926
926
924
923
921
920
920
921
924
921
924
927
926
925
926
928
924
924
918
913
902
892
879
871
866
866
868
877
889
904
918
930
932
930
924
919
911
911
912
910
913
914
916
917
918
919
921
923
922
921
921
922
919
919
918
919
919
923
921
926
924
922
922
922
919
920
920
919
920
923
924
925
925
923
921
919
920
915
915
916
919
918
922
922
921
920
919
916
914
914
912
912
915
914
916
918
920
917
916
916
913
911
910
911
909
912
914
915
913
914
914
910
908
907
907
906
907
910
909
911
911
908
908
907
901
900
904
902
901
904
905
907
905
902
903
900
899
901
897
899
900
901
901
906
906
904
905
903
904
904
903
908
906
909
912
913
914
912
915
912
911
909
912
912
913
913
915
917
917
915
915
914
913
914
912
913
912
917
917
918
919
917
915
913
914
912
913
914
915
918
918
920
920
919
918
915
915
913
914
915
917
916
919
919
919
919
919
916
916
916
914
917
916
919
921
922
923
923
924
922
919
919
918
918
916
915
911
912
910
909
909
910
909
907
907
909
909
909
911
916
917
919
918
919
919
918
918
918
919
920
921
922
923
922
922
920
918
918
916
917
918
921
921
927
928
928
927
922
918
906
890
877
863
853
850
854
865
880
899
915
931
938
936
931
921
912
910
909
911
913
916
917
918
916
915
915
915
919
920
925
923
923
922
919
919
916
919
919
919
919
922
924
924
922
922
920
919
918
916
918
918
919
919
922
920
920
920
918
916
914
914
913
915
915
916
919
918
916
918
917
912
912
911
912
914
914
914
915
915
914
914
912
912
907
909
909
909
911
910
912
915
912
912
907
906
907
903
907
906
908
907
909
908
905
906
902
900
901
901
903
903
904
903
904
907
904
905
903
902
902
905
906
907
910
911
912
914
912
912
913
911
910
910
914
915
915
916
919
920
918
920
918
916
915
914
915
917
918
917
921
922
921
922
917
918
915
918
917
918
920
920
920
922
921
923
919
917
917
916
918
917
922
921
923
921
923
920
921
919
917
917
917
920
922
920
921
923
923
924
922
922
920
921
922
923
923
922
921
916
917
911
910
906
906
906
908
912
912
912
914
915
915
917
917
916
917
917
919
921
920
922
921
922
922
923
923
920
920
919
919
920
921
921
924
925
924
923
924
927
924
925
921
910
899
882
866
853
840
842
851
865
885
908
932
947
953
948
934
926
914
909
906
907
911
916
918
919
920
920
924
923
923
923
923
920
920
920
922
921
924
925
925
927
923
924
922
921
918
921
919
920
919
923
924
926
923
923
921
921
919
916
916
920
922
922
921
921
920
919
920
915
915
915
914
915
917
918
917
919
921
920
918
912
913
912
910
913
913
913
916
915
912
913
911
911
908
908
908
908
910
907
908
909
907
906
903
901
901
899
900
900
901
902
904
905
905
905
904
903
901
902
905
908
907
909
912
916
913
912
911
912
912
913
914
914
918
918
919
921
919
920
917
918
916
916
916
919
920
920
923
922
923
921
919
917
915
915
915
916
919
921
921
923
921
921
920
921
916
917
919
919
920
923
922
924
923
924
922
921
918
917
918
920
921
920
922
924
924
924
924
925
924
923
926
925
926
926
926
920
920
914
913
911
908
909
910
912
915
914
919
920
916
919
918
919
917
918
918
921
923
923
926
926
926
924
923
920
921
919
920
921
921
923
924
925
925
926
926
925
923
917
908
896
881
867
854
846
848
860
878
899
920
939
952
954
945
937
922
916
909
907
911
915
916
917
920
916
919
921
923
924
922
925
920
921
918
919
917
920
922
920
922
922
922
924
920
919
916
918
917
918
919
919
921
920
920
919
918
917
916
914
915
915
916
916
921
919
919
918
916
914
914
913
913
913
913
915
914
914
913
914
913
912
909
907
909
909
911
911
912
914
912
911
908
908
905
902
905
904
903
904
907
907
907
905
905
902
903
899
901
899
902
903
902
904
905
904
905
903
900
901
902
903
908
907
912
913
914
913
915
914
912
911
915
915
918
920
920
920
921
921
918
917
917
916
919
921
920
922
920
924
923
922
921
919
919
919
921
920
922
924
925
925
924
926
923
921
920
919
921
920
922
923
926
925
925
923
922
920
919
919
921
922
924
925
925
925
926
926
927
925
922
922
924
924
927
927
928
927
925
923
919
915
913
912
911
912
913
917
919
918
920
916
917
916
917
915
918
919
921
924
926
926
927
926
926
924
922
922
920
922
922
925
926
927
925
924
923
921
921
923
924
925
926
923
916
907
894
877
865
854
851
856
870
888
908
928
943
952
950
945
935
923
917
908
908
912
916
921
923
925
924
925
922
923
922
920
923
924
925
927
927
928
926
927
926
927
923
923
923
924
924
924
925
927
926
925
923
922
921
917
919
919
920
924
924
923
924
923
921
918
917
916
916
919
918
920
922
921
919
918
917
916
916
915
915
915
915
915
916
919
917
918
915
915
913
910
910
911
913
914
915
916
915
913
910
910
907
905
904
907
908
910
908
910
909
907
907
905
903
902
902
903
904
907
908
911
908
906
909
907
908
908
908
910
913
915
915
917
916
918
916
917
915
915
914
914
916
916
918
922
921
919
918
916
915
915
916
919
919
919
922
920
920
919
920
917
917
915
917
917
920
922
923
924
923
923
922
921
917
918
918
918
921
922
923
923
923
922
921
922
919
917
919
920
921
922
924
926
926
928
925
926
925
923
924
924
923
921
921
919
916
913
912
909
909
909
908
911
910
913
913
914
916
918
917
915
917
918
919
920
920
923
923
924
924
922
923
921
919
919
918
919
921
921
924
924
924
929
928
930
927
924
916
906
893
881
868
859
855
853
862
873
888
906
923
937
942
935
925
913
907
902
905
907
911
914
914
917
915
917
919
919
921
922
920
919
919
917
918
919
921
921
922
924
924
922
919
921
919
917
918
917
918
919
921
925
923
921
919
918
916
916
918
918
916
918
918
917
918
917
916
915
912
911
910
912
914
915
915
917
916
914
915
913
910
909
910
909
911
912
911
913
913
911
910
909
907
907
906
907
908
909
907
910
908
907
907
904
901
901
899
900
899
902
902
905
906
903
903
902
904
903
905
904
907
908
909
912
911
912
911
910
909
909
909
909
911
914
914
917
917
915
916
916
914
913
913
915
916
919
919
919
918
921
918
918
919
917
916
915
918
918
921
920
923
920
919
917
915
917
916
917
919
919
920
922
921
919
920
919
919
917
918
919
919
921
920
921
921
921
920
917
920
919
918
919
921
925
925
926
926
923
919
914
911
909
906
907
907
910
911
914
914
912
914
911
910
909
909
913
914
918
920
923
922
922
923
921
918
920
919
920
921
924
922
923
924
923
920
920
919
918
918
923
924
928
930
925
916
906
889
872
858
844
843
851
861
879
901
921
938
944
942
931
920
909
903
904
906
912
917
920
919
920
919
916
916
916
916
918
919
919
923
922
925
923
919
921
918
921
917
919
920
919
921
922
921
922
920
919
918
917
915
918
918
920
921
921
921
919
919
916
916
913
914
915
916
916
916
920
919
917
917
916
915
912
911
910
912
914
914
914
914
915
912
911
911
908
908
908
908
910
911
912
911
911
909
908
906
903
904
903
903
903
905
903
903
902
901
902
898
898
899
900
901
904
905
909
907
908
907
905
905
906
906
905
910
911
913
914
915
915
914
911
912
912
911
913
914
917
915
920
920
917
917
919
915
913
914
915
916
917
918
921
919
920
918
918
917
916
914
917
919
919
917
921
922
919
918
917
918
917
917
918
918
919
922
920
921
918
918
917
915
916
916
918
920
921
924
926
927
922
918
915
909
906
902
903
904
907
908
911
911
909
909
909
909
910
911
914
914
916
920
921
920
919
919
918
917
913
918
916
915
918
921
920
918
918
918
917
918
919
921
921
919
914
906
892
877
859
847
840
842
849
865
886
907
927
941
945
938
927
914
906
901
900
902
910
913
917
915
920
918
918
917
916
915
913
912
913
916
916
919
921
920
919
917
918
915
914
916
915
915
916
918
919
918
918
918
916
914
914
911
912
913
914
917
919
918
916
916
915
915
912
910
910
909
913
914
914
915
915
912
914
911
910
908
908
910
910
909
910
911
908
909
908
907
905
905
906
908
908
908
911
910
911
908
907
904
901
899
900
901
900
900
902
902
901
901
898
897
896
896
899
900
901
903
905
907
905
904
904
904
904
905
906
907
909
909
912
912
912
913
910
911
910
910
912
914
914
916
915
916
917
915
913
911
911
910
911
912
913
916
917
915
916
915
914
913
909
911
914
914
917
917
918
920
917
918
917
916
916
915
914
917
917
917
920
922
920
919
919
919
916
917
919
919
921
924
927
926
924
920
916
912
911
907
905
907
907
908
913
913
913
912
913
911
911
913
914
918
919
921
922
923
923
921
920
918
917
917
919
919
920
920
923
924
922
921
918
918
920
920
922
921
921
915
905
890
870
856
843
837
843
855
879
904
928
946
954
951
939
924
912
904
901
902
908
913
917
919
921
920
918
916
919
918
915
916
917
916
917
918
920
921
919
919
920
917
915
916
916
915
917
918
919
920
920
917
917
916
914
912
915
913
914
916
917
916
917
915
914
912
911
908
909
911
911
915
916
916
912
914
910
907
905
905
904
906
907
907
907
910
908
908
907
904
904
901
903
904
904
904
905
906
905
904
901
898
897
894
897
896
898
899
901
900
901
901
902
899
898
898
902
901
905
909
908
910
910
910
910
908
907
908
910
910
912
915
916
920
916
917
917
914
915
914
913
916
921
918
922
921
921
921
920
917
916
916
917
917
919
919
923
922
923
924
919
919
919
916
917
917
919
920
921
923
922
922
921
919
917
918
917
917
919
921
922
923
923
923
920
923
917
920
923
922
926
928
927
928
924
921
917
913
910
910
909
911
913
914
916
919
921
918
919
917
917
916
917
919
923
926
925
927
926
925
922
921
920
920
923
922
922
923
926
927
924
926
923
923
923
925
925
922
919
906
893
877
862
853
850
860
876
895
918
939
952
956
947
937
923
915
907
906
910
911
916
918
921
922
922
924
923
922
921
921
920
920
919
921
923
922
924
923
923
920
920
919
920
918
919
919
919
920
922
922
921
920
919
915
915
914
915
915
917
917
919
921
918
917
917
915
912
912
914
913
915
916
916
917
914
914
913
911
910
908
907
908
909
909
912
912
911
913
910
908
906
906
905
903
906
906
908
908
907
907
904
901
899
899
899
901
902
904
904
907
907
907
905
905
905
904
904
906
910
911
914
915
915
916
913
913
913
913
915
914
917
920
921
922
922
922
922
920
917
916
918
919
920
921
924
924
922
921
920
919
917
917
921
920
920
922
923
924
924
922
920
921
920
920
919
919
921
924
924
925
925
924
920
920
919
919
920
920
921
921
922
923
922
924
922
923
923
923
922
926
926
929
930
930
924
922
918
912
911
910
911
912
913
914
918
918
918
918
919
918
918
917
919
919
923
924
925
928
926
926
925
923
923
922
920
923
924
922
926
925
926
923
923
922
924
923
928
930
927
925
918
909
896
878
867
859
857
864
878
896
914
931
946
952
949
940
928
918
909
906
907
911
915
921
923
924
922
924
921
920
916
917
919
920
922
924
924
925
926
923
923
922
919
919
920
918
922
923
923
924
925
922
921
919
918
916
916
919
919
918
920
920
918
918
918
916
914
912
911
913
913
915
914
918
916
916
915
913
909
911
909
910
912
913
913
914
914
913
912
909
906
908
905
907
908
909
910
912
909
910
909
906
901
902
901
901
902
904
903
904
904
903
902
900
898
898
901
900
904
906
904
908
909
909
908
907
906
905
905
909
909
909
913
916
914
917
915
913
913
910
913
914
915
918
919
918
917
917
920
916
912
913
912
912
915
916
918
921
918
920
919
915
914
914
915
916
914
918
919
922
919
917
917
917
915
913
913
917
916
920
919
922
920
919
919
917
915
915
915
919
921
922
923
925
924
924
923
919
915
912
909
910
908
908
911
912
914
914
912
909
908
908
907
912
913
915
918
921
923
922
921
919
918
916
916
917
918
922
920
921
922
920
920
918
915
915
914
918
921
924
929
930
927
920
912
897
883
869
858
851
852
856
867
882
898
915
928
936
934
926
917
909
905
901
905
907
911
913
913
915
912
909
911
914
916
918
920
922
920
919
918
918
916
915
917
917
919
917
919
922
920
921
920
918
917
916
915
919
916
918
919
921
920
918
917
918
915
916
915
915
915
918
918
921
920
920
919
916
914
913
913
913
915
915
917
916
916
915
912
913
909
910
911
911
910
911
913
911
912
911
911
909
906
906
906
907
908
910
911
914
910
909
907
906
901
901
900
901
899
902
903
906
904
904
903
902
902
902
903
904
905
904
908
911
910
910
911
910
910
908
909
912
914
914
917
919
916
917
917
915
913
913
911
914
914
917
919
920
918
918
916
917
915
913
915
916
916
916
920
920
921
919
919
917
916
914
914
914
916
919
919
919
920
920
921
919
916
915
915
918
918
919
919
920
920
919
919
918
919
918
917
920
922
923
924
924
922
918
913
910
907
905
907
905
906
910
913
915
915
913
914
914
914
915
915
919
919
920
922
922
922
922
922
920
918
917
919
919
917
920
921
923
922
921
921
923
925
926
924
920
912
898
882
864
852
846
848
859
879
899
924
939
943
940
928
918
910
906
905
906
911
915
913
917
918
918
919
922
923
923
920
921
921
917
917
916
918
919
923
921
922
922
921
918
918
918
918
918
920
921
921
922
923
919
920
918
917
915
914
917
918
918
921
923
922
921
920
917
914
915
915
914
913
917
916
917
917
915
916
912
914
913
912
914
913
913
914
917
915
913
911
912
911
909
907
909
909
910
911
910
910
907
907
905
904
902
901
900
902
903
905
906
904
905
904
903
902
899
903
903
905
909
911
912
912
913
911
912
911
909
910
913
913
915
916
919
917
917
916
915
917
914
914
915
916
917
918
919
920
917
916
918
918
915
915
916
917
919
921
920
922
919
919
916
917
916
917
917
917
918
920
920
922
921
920
921
919
917
917
918
916
919
919
923
925
924
924
924
923
924
922
920
922
920
918
918
916
913
908
908
908
906
906
909
911
910
909
914
914
916
915
916
918
918
916
919
919
921
920
922
923
923
921
918
918
918
918
917
920
918
920
922
925
925
928
926
922
915
903
891
874
856
845
840
843
854
871
896
915
936
945
949
940
932
918
914
909
908
912
915
917
918
918
919
920
919
923
921
927
925
925
922
922
921
919
920
921
923
924
925
927
925
924
923
922
919
918
920
920
919
922
923
924
922
919
918
918
916
914
917
916
919
918
920
919
917
917
915
915
913
915
915
916
917
918
919
918
918
913
911
911
910
907
909
909
914
913
913
915
912
909
909
907
906
904
905
903
905
906
906
908
907
904
902
900
899
896
897
898
902
902
902
904
904
904
904
905
903
904
904
905
908
911
913
913
913
913
913
914
911
912
913
914
917
919
918
922
922
921
919
919
919
920
919
920
919
921
922
922
921
922
923
920
917
918
918
918
921
921
922
924
923
923
922
917
919
920
916
920
920
920
923
924
923
924
920
920
919
917
921
922
922
927
926
928
929
928
927
923
918
913
916
914
914
912
916
914
914
919
915
915
911
911
913
915
916
921
923
926
927
926
927
924
922
920
920
922
924
925
925
926
925
925
922
923
921
918
920
921
924
927
929
928
922
913
899
884
867
853
846
847
864
882
905
927
945
958
959
952
939
927
917
911
910
911
914
918
922
922
922
920
919
917
920
920
922
923
925
925
925
923
923
919
919
918
920
919
922
921
924
925
926
925
920
919
917
916
916
918
920
920
921
921
923
922
921
918
916
917
915
916
917
918
919
918
917
916
915
911
914
913
912
914
915
915
913
915
916
914
911
912
909
907
909
909
910
911
913
913
911
909
909
906
907
904
903
904
903
905
906
906
904
905
902
900
900
898
900
900
901
902
905
908
909
906
908
906
907
907
908
910
913
914
914
916
915
916
917
915
911
912
911
913
916
916
918
919
918
920
919
917
914
917
916
916
918
917
918
922
919
920
920
918
917
915
918
919
920
923
921
924
924
923
922
921
919
916
920
919
920
921
923
924
924
923
921
918
917
920
920
922
923
926
927
930
927
929
925
923
918
915
913
912
912
913
913
913
913
915
913
914
912
911
913
914
915
918
920
922
922
923
922
921
920
916
918
918
921
923
923
923
923
922
921
921
917
918
917
919
920
921
925
928
927
929
922
918
906
891
877
865
859
858
864
878
894
910
925
939
943
941
936
927
917
912
910
911
914
915
917
918
914
913
914
915
915
919
921
922
921
922
920
918
916
917
918
918
920
920
921
923
920
920
918
919
916
915
916
916
917
917
917
920
919
918
917
917
915
912
913
913
913
917
919
918
916
916
914
914
908
909
910
909
911
912
912
914
911
911
911
908
907
906
906
907
909
910
910
910
909
910
907
905
905
902
904
907
907
905
907
906
907
905
904
902
899
897
900
900
900
899
904
903
904
904
902
901
900
900
900
901
904
904
907
910
908
909
909
908
908
908
905
906
911
912
914
914
915
915
914
912
909
909
910
913
913
916
917
917
916
915
914
912
914
911
912
914
915
915
919
916
916
918
913
914
913
912
915
915
915
917
917
918
919
918
916
916
915
911
913
915
916
917
919
919
919
918
920
918
918
919
918
920
925
924
927
924
921
917
914
908
906
902
903
906
907
911
912
913
910
913
911
913
912
913
914
915
917
920
924
923
924
924
921
920
919
919
919
919
918
921
922
923
924
922
919
921
921
922
925
927
924
916
904
890
874
860
855
853
860
872
892
912
932
943
940
931
920
910
904
904
903
908
912
914
916
919
920
921
920
920
921
920
918
916
917
915
917
919
920
922
922
921
921
920
917
916
915
918
918
918
920
922
921
921
918
917
915
912
914
914
916
917
918
919
920
917
916
917
914
911
911
912
913
914
916
914
914
912
912
910
909
909
908
908
908
911
910
912
912
911
908
908
906
904
905
903
907
907
907
910
908
908
907
902
900
899
897
898
900
903
902
904
903
903
902
902
901
901
899
902
904
906
908
909
910
911
911
909
907
908
908
909
911
913
915
918
918
916
913
915
915
914
913
915
915
916
916
918
917
918
916
914
914
913
912
914
917
917
918
920
920
920
917
917
914
915
917
915
917
917
919
921
918
918
918
917
915
917
915
916
917
920
921
921
921
919
920
918
917
916
919
919
921
923
925
925
924
922
919
916
909
908
906
906
906
907
911
911
911
912
908
908
909
908
908
910
913
915
918
921
920
921
919
918
915
915
915
916
918
919
920
922
921
921
921
918
913
916
917
920
922
924
924
919
910
894
878
861
847
841
846
858
876
897
919
937
946
942
931
920
908
902
899
905
908
914
917
918
917
919
918
916
916
916
917
917
917
920
920
921
921
922
919
918
917
915
915
916
918
917
918
921
920
918
916
915
914
912
913
915
915
917
917
918
919
917
915
915
913
912
911
911
913
913
915
917
915
916
914
912
908
908
908
910
909
911
913
916
912
913
911
909
908
908
904
907
907
906
907
910
908
908
909
906
904
902
902
901
902
904
903
904
902
901
899
897
897
895
893
897
899
900
902
904
907
905
904
905
904
904
902
905
909
909
912
911
915
912
914
912
912
911
909
910
911
912
914
913
914
914
914
912
911
910
910
913
911
912
916
919
917
916
918
914
913
913
913
914
914
914
917
917
918
915
915
915
914
913
911
914
914
916
915
918
918
915
915
917
917
915
917
919
918
920
922
919
917
912
911
907
904
905
902
907
908
910
913
912
912
910
911
911
910
910
914
917
917
920
922
923
921
918
919
917
916
917
916
918
918
919
922
923
920
922
918
919
918
918
919
922
921
921
913
901
885
868
851
840
835
841
854
877
901
923
940
951
946
939
925
913
905
903
900
908
913
915
919
919
920
917
919
917
917
915
915
918
918
918
919
922
923
924
922
920
920
918
916
921
920
919
921
924
921
920
920
919
918
915
916
916
917
917
917
919
918
916
918
915
915
912
910
912
912
914
914
914
915
915
916
913
911
907
909
909
911
912
913
912
914
911
910
909
908
905
904
906
904
906
908
909
907
907
905
903
901
898
896
897
895
898
899
899
900
901
901
897
898
896
897
899
900
901
905
906
907
907
908
908
907
907
908
910
908
912
914
916
918
916
916
917
913
913
912
914
914
915
919
919
920
920
919
917
917
916
915
913
917
917
918
921
921
919
920
918
916
913
915
915
917
919
920
922
921
921
921
920
918
917
916
918
919
919
920
924
924
921
924
921
922
921
921
923
923
925
923
921
921
916
911
909
909
908
907
911
910
912
914
915
918
917
915
916
916
916
917
918
919
920
923
924
924
922
921
921
920
917
918
918
919
920
921
925
923
922
921
920
920
922
922
922
916
909
897
884
868
857
854
854
866
885
906
926
945
953
955
946
936
924
915
908
906
909
911
916
916
917
919
922
921
921
920
923
919
921
919
920
920
922
921
925
923
925
923
921
921
918
916
919
919
920
919
921
921
919
920
918
917
915
914
916
915
916
917
918
918
919
916
915
913
912
911
910
910
915
914
916
916
913
914
911
910
908
907
907
907
906
910
908
909
908
908
904
906
902
902
904
903
905
906
907
909
906
907
902
900
900
898
899
900
900
901
902
903
902
903
902
901
901
900
903
903
906
907
909
910
909
912
909
908
909
910
910
913
914
915
918
918
918
918
916
915
913
915
916
917
920
920
921
921
920
921
920
917
916
916
918
919
919
921
921
921
923
921
922
921
921
918
918
921
922
923
925
924
922
922
922
922
920
920
920
921
925
927
926
927
926
926
925
928
924
928
928
930
930
932
933
929
925
924
920
916
913
913
914
917
916
922
921
923
923
921
923
920
920
921
923
923
926
928
927
928
928
927
926
922
922
922
922
923
925
925
926
927
926
927
929
927
927
924
919
911
900
888
875
867
863
869
878
895
913
931
946
953
952
944
933
925
919
914
912
912
915
918
920
923
921
924
926
925
925
924
924
922
922
921
922
924
925
924
928
927
925
927
923
921
921
919
920
922
921
923
927
923
924
922
922
920
919
915
919
919
920
922
923
924
922
920
920
917
915
915
914
915
918
916
921
920
918
917
915
914
913
914
912
912
913
914
915
918
916
917
914
911
910
910
910
910
913
914
915
913
912
911
910
908
906
905
905
906
906
910
908
912
911
909
908
906
906
906
907
908
911
914
915
918
918
918
917
916
915
914
914
915
919
919
921
924
922
921
918
919
917
915
918
919
921
920
925
926
923
924
921
920
919
919
919
919
923
923
925
928
927
924
923
923
922
919
922
920
922
926
925
926
927
924
924
923
923
922
922
925
927
927
928
929
930
932
930
927
926
927
927
930
932
931
931
927
926
921
918
917
912
912
913
915
914
919
920
921
921
919
920
919
919
920
921
923
926
929
928
930
930
928
926
924
924
924
925
923
923
926
927
930
928
927
929
926
927
929
931
929
925
916
905
889
876
868
862
863
866
879
898
916
934
944
943
935
926
916
909
909
911
912
916
920
921
923
925
923
924
926
923
921
922
922
921
922
923
925
925
927
926
928
924
924
924
921
922
922
924
925
926
928
926
923
925
922
920
919
920
920
923
923
923
923
924
924
922
920
917
916
919
918
919
918
921
921
920
921
919
918
915
914
914
914
916
916
916
919
919
918
916
912
913
913
910
912
912
915
916
916
915
914
915
910
907
908
906
907
908
910
908
912
911
910
907
908
906
908
908
911
912
913
913
916
916
916
917
914
917
915
916
919
922
921
923
924
924
923
923
921
920
920
921
921
924
926
926
928
926
925
925
923
921
922
922
923
923
925
926
928
927
927
925
925
924
922
925
924
926
928
928
931
927
929
928
927
924
924
923
924
926
928
930
932
932
928
927
927
926
924
925
925
928
929
930
932
932
933
934
932
929
927
926
925
925
921
923
921
922
920
919
920
918
917
916
919
919
921
923
924
925
928
930
928
927
924
926
925
928
929
930
929
931
928
929
926
927
925
926
927
929
929
932
930
935
937
935
934
929
922
912
898
887
871
861
859
861
870
886
903
918
938
947
950
940
930
922
918
915
915
919
921
922
922
922
925
925
928
929
930
929
931
929
930
927
925
925
927
929
929
931
931
931
929
928
927
924
925
924
926
926
928
930
928
928
928
927
925
922
921
921
923
925
924
927
927
927
924
923
922
920
920
921
920
922
923
923
925
923
923
922
918
918
917
915
917
919
919
919
920
919
918
917
916
914
915
914
916
913
915
917
916
915
915
913
910
909
906
906
906
908
908
911
910
912
912
913
911
910
911
908
913
916
918
918
921
923
922
922
921
919
919
921
920
922
922
925
927
925
925
924
923
922
921
923
924
924
925
927
928
929
930
928
928
926
924
924
923
926
927
926
927
927
930
926
926
924
924
924
923
926
928
928
930
932
929
927
926
927
925
926
927
928
929
931
934
934
934
934
934
931
932
929
928
926
925
923
923
919
919
920
919
918
918
919
920
922
922
924
929
929
930
929
928
930
928
927
929
928
930
930
932
931
928
931
930
927
926
928
925
925
929
929
935
935
936
933
928
914
900
883
870
857
851
856
870
887
906
929
945
955
955
949
938
929
919
915
919
922
924
926
924
923
924
924
927
927
928
929
932
934
933
934
931
929
929
928
929
931
932
932
935
932
932
930
929
927
928
929
926
929
929
930
930
932
930
928
927
928
925
925
927
926
926
927
931
928
928
927
926
923
921
922
923
924
926
928
930
928
927
926
923
922
919
920
921
922
922
923
924
924
923
921
921
918
916
916
917
918
919
920
921
919
918
914
913
910
911
910
912
912
913
914
916
916
916
914
913
913
914
914
916
918
920
921
926
925
926
925
925
924
926
927
926
927
929
931
933
931
931
931
929
927
927
928
930
929
932
932
936
934
934
935
931
930
930
930
931
931
933
933
936
935
935
933
935
932
931
930
932
933
935
937
937
938
935
935
934
935
932
934
934
935
938
939
940
942
941
942
942
939
938
939
941
939
941
940
938
935
932
930
929
925
927
926
930
931
932
933
935
934
936
932
934
932
931
935
936
935
940
939
940
940
940
939
938
937
936
936
935
937
938
939
939
941
939
942
940
941
939
934
927
916
903
888
878
873
871
882
899
921
940
957
967
969
964
953
944
934
927
926
927
929
931
933
936
937
938
940
941
941
943
940
938
937
936
936
935
936
938
941
940
940
940
940
938
934
934
934
936
935
936
938
938
939
937
937
934
933
932
929
930
932
933
935
937
934
935
932
931
928
926
928
927
928
929
932
931
932
928
929
927
924
924
922
925
924
926
927
925
927
925
923
921
920
922
918
919
920
920
921
923
924
919
921
919
917
916
914
918
920
920
921
924
924
925
926
925
924
923
924
927
927
928
932
933
936
935
935
932
931
929
930
930
932
934
933
937
938
938
939
936
935
934
934
933
936
937
940
938
937
937
938
934
935
933
934
934
934
938
937
940
938
940
938
937
936
935
933
936
938
938
939
940
943
941
939
939
935
935
935
938
940
942
945
945
946
946
947
943
941
938
934
933
934
931
930
933
932
932
933
934
932
932
929
931
931
934
936
940
940
941
939
940
939
937
936
938
937
940
941
944
942
942
941
941
939
939
937
938
939
939
944
946
949
948
944
936
928
915
900
888
880
877
885
894
911
925
943
954
961
960
954
946
938
931
929
930
932
935
939
937
936
933
935
937
939
941
940
946
943
941
942
943
940
936
936
938
938
939
942
941
943
941
938
939
939
935
934
934
935
938
937
938
939
940
936
934
934
935
929
934
932
933
934
937
937
934
933
931
930
929
927
926
929
931
931
933
934
933
932
928
925
925
922
924
928
928
928
930
929
927
927
925
924
923
922
923
923
924
925
925
926
924
925
922
920
918
920
919
917
920
922
924
925
924
923
923
925
924
925
925
927
930
930
931
932
932
932
931
931
930
928
932
931
934
936
935
936
936
938
936
933
931
932
933
934
935
939
939
939
938
937
937
936
935
935
935
934
938
937
939
939
939
936
935
935
935
934
935
936
937
939
939
941
938
940
936
936
934
934
933
936
938
940
937
939
940
939
939
939
937
938
939
941
944
944
943
941
936
933
930
927
924
926
926
928
929
932
933
934
933
932
932
930
932
932
936
935
937
942
943
943
943
941
938
941
937
934
939
938
939
939
942
943
942
939
939
940
942
944
944
942
937
928
916
903
889
879
873
872
882
894
911
931
947
957
957
950
940
932
922
925
921
925
928
931
935
935
937
938
937
939
934
933
933
933
935
933
935
938
938
937
937
938
936
934
935
932
933
935
936
936
938
937
937
935
934
932
930
931
932
929
931
935
934
936
934
932
932
931
929
926
928
929
929
931
932
932
932
931
929
926
925
926
925
925
924
929
927
929
930
928
927
925
923
920
921
923
923
923
926
927
925
925
920
920
916
914
916
914
915
918
918
918
915
916
916
913
913
912
913
914
916
920
920
921
919
921
919
919
919
920
921
922
923
926
930
930
928
929
929
927
925
925
927
925
928
929
931
934
932
933
932
929
928
930
928
928
931
932
932
934
932
934
929
929
928
929
928
929
932
932
934
934
934
934
931
928
930
929
931
931
933
935
937
936
937
936
935
933
930
929
932
933
932
935
939
941
940
940
941
936
933
931
927
926
926
926
927
926
927
928
926
923
922
921
922
923
925
928
932
935
935
935
936
934
933
931
933
932
933
938
936
936
935
937
935
934
933
933
930
933
936
939
943
945
943
938
926
910
892
876
866
862
863
878
896
917
938
953
958
954
943
932
923
919
919
921
928
930
935
933
934
931
930
931
933
933
934
934
936
939
937
937
935
933
931
930
929
932
933
933
934
934
934
936
933
931
929
927
927
929
929
931
931
933
932
935
930
928
927
926
926
927
929
928
930
930
930
929
929
926
925
923
925
925
925
925
928
929
928
927
927
923
925
924
921
923
923
925
925
927
925
925
923
921
919
920
920
919
920
920
922
921
920
920
917
914
914
913
912
913
916
917
919
921
920
922
920
918
918
917
920
920
923
925
927
928
929
929
926
926
925
927
927
926
929
931
930
934
933
932
929
929
928
928
930
930
932
933
932
935
934
935
934
932
930
928
929
931
931
935
935
936
935
934
932
929
930
927
928
929
932
933
935
936
937
936
934
934
931
933
933
932
935
935
937
938
939
939
938
938
937
936
937
937
939
939
936
933
930
929
927
925
924
923
926
927
928
927
929
930
930
931
934
934
932
932
935
936
937
938
941
941
941
941
939
935
937
935
934
936
938
937
939
941
940
945
944
944
942
939
931
919
902
887
872
860
860
867
881
902
925
947
961
966
959
948
938
930
926
925
927
930
931
933
934
934
935
935
938
940
939
939
937
938
936
936
934
934
936
936
938
938
939
939
939
938
934
934
934
934
937
939
938
939
938
939
937
933
934
933
933
934
931
933
936
934
934
933
932
930
927
929
932
928
930
929
928
933
933
932
930
929
926
924
924
923
925
926
927
928
927
926
926
923
920
918
916
917
916
919
918
920
918
919
919
917
916
913
914
915
916
918
920
921
923
924
923
924
922
923
922
924
927
928
930
931
931
931
931
929
930
928
930
932
932
934
935
936
936
936
936
935
930
930
931
933
932
935
937
938
938
937
939
934
935
933
933
932
935
936
939
938
939
937
935
937
934
932
935
936
935
939
936
938
937
937
937
937
933
935
933
935
935
940
942
943
943
943
944
942
941
941
937
933
935
932
932
933
932
930
927
927
928
928
927
929
932
934
935
937
935
937
935
937
935
935
934
935
937
939
939
941
942
939
941
940
937
935
935
936
938
940
940
942
943
945
945
943
936
930
918
904
887
874
871
870
880
894
915
937
954
963
967
963
953
942
933
929
929
930
932
933
934
935
935
933
937
938
938
942
943
940
941
939
936
937
939
938
937
941
940
940
941
941
940
938
937
937
936
937
936
938
939
939
941
938
937
936
934
932
930
932
933
933
937
936
935
934
932
931
932
930
928
928
930
929
931
934
933
932
928
927
926
924
925
927
926
930
927
930
928
924
923
924
921
921
920
919
920
922
922
924
922
919
919
918
916
916
917
919
921
921
923
925
924
927
925
924
923
924
926
928
929
930
930
934
933
933
932
934
932
932
933
933
935
936
938
941
940
940
938
937
938
935
934
935
938
936
938
940
941
942
939
939
937
936
937
938
939
942
941
943
943
943
940
939
938
936
936
936
939
941
941
943
944
943
941
940
939
938
937
939
941
940
941
944
946
944
945
944
944
942
941
944
942
939
938
939
936
934
933
930
930
931
932
933
934
936
936
938
939
938
940
938
937
939
940
938
940
941
943
943
943
944
942
941
940
940
938
941
940
941
943
945
944
944
945
944
946
944
938
933
926
915
903
892
884
878
883
891
905
920
937
956
963
968
962
954
944
935
929
927
926
928
932
936
938
939
939
940
940
940
940
938
937
934
934
936
936
939
940
942
942
942
943
938
937
936
936
936
937
939
939
941
939
938
939
935
936
933
934
932
933
935
935
936
936
935
936
935
932
929
931
930
933
930
932
934
934
932
932
931
929
927
927
929
928
930
931
931
932
928
930
928
926
925
923
927
927
927
928
929
929
927
928
924
923
922
920
919
921
922
923
923
924
924
923
923
920
920
922
922
923
927
930
931
932
931
930
930
927
929
929
928
933
930
935
935
938
936
935
934
934
932
932
931
934
934
933
936
935
937
936
933
932
933
930
932
933
935
935
937
937
936
934
935
932
932
930
932
931
933
934
936
936
936
935
934
932
930
931
932
935
934
938
938
939
938
941
941
938
936
938
938
938
939
937
935
935
929
927
924
924
923
922
925
925
927
929
932
931
931
932
932
932
930
930
935
935
935
937
938
935
936
936
935
933
932
931
931
932
935
935
936
937
937
936
939
938
938
936
932
923
913
901
887
876
872
870
876
885
901
919
937
946
948
945
934
929
921
919
920
920
924
926
926
928
931
931
933
934
934
933
931
930
930
931
932
933
935
935
936
937
934
936
932
931
929
930
931
931
931
934
935
935
933
933
931
931
930
930
929
930
931
931
934
934
930
930
930
928
927
924
926
926
927
927
930
929
927
929
927
924
924
924
924
922
926
925
926
927
925
924
923
922
920
919
923
920
922
924
924
926
920
922
922
919
916
913
916
914
916
918
919
918
916
916
913
914
913
913
913
913
920
920
921
923
925
921
921
920
920
922
921
924
923
926
929
929
930
930
928
927
927
923
926
926
930
931
932
935
932
932
930
928
927
926
927
929
931
933
931
936
933
932
932
931
928
930
928
930
933
932
934
934
932
933
932
930
930
929
929
931
931
934
934
936
932
932
931
928
928
929
930
929
933
930
932
934
935
934
936
932
934
934
934
935
936
934
933
932
927
925
922
920
920
919
921
920
924
924
929
926
925
927
926
925
927
927
931
931
935
935
936
937
937
936
933
932
931
931
932
933
933
935
935
937
935
936
937
937
937
936
931
923
910
896
882
871
862
866
875
889
910
927
947
954
953
945
934
928
919
919
918
925
926
927
930
930
930
931
935
933
935
935
933
934
931
930
930
933
932
935
937
937
934
936
935
931
931
931
932
931
933
936
937
936
936
935
933
933
932
931
930
931
930
931
934
932
934
933
931
930
928
927
927
927
932
930
931
931
930
929
929
928
927
925
925
926
926
927
927
930
930
929
925
925
924
924
923
923
924
926
925
925
924
925
923
920
919
917
919
919
917
919
919
920
919
918
918
913
912
914
913
915
917
919
922
924
923
922
922
922
920
920
924
924
926
926
928
930
929
930
928
927
926
926
926
927
930
930
931
932
933
932
932
931
931
928
929
929
932
934
935
937
936
934
934
932
929
929
930
933
932
934
935
935
936
933
934
931
932
929
930
933
932
935
935
938
935
935
935
934
931
929
930
932
934
936
939
940
941
943
941
940
939
935
932
929
930
929
928
926
925
926
923
925
923
924
923
926
927
929
932
934
935
936
936
936
934
932
934
933
935
937
937
939
937
937
936
936
933
931
931
932
936
936
939
939
942
944
941
940
930
915
901
884
872
863
862
867
881
901
920
941
955
959
956
948
940
930
929
926
927
929
933
932
933
932
932
932
934
936
936
937
939
936
937
936
935
932
932
934
935
938
939
938
935
934
934
935
931
930
930
932
933
934
937
936
935
935
932
932
929
927
931
930
932
931
933
933
932
933
932
929
928
928
926
927
931
928
930
929
932
929
927
926
925
923
922
924
925
926
928
930
927
925
925
923
919
918
918
921
920
921
922
921
921
921
918
916
914
913
914
915
916
917
919
922
919
921
920
920
920
919
918
920
921
923
927
929
928
930
928
929
926
926
926
928
928
929
935
935
936
933
933
931
930
930
928
930
934
933
935
935
936
935
935
931
929
931
930
933
933
935
936
938
936
936
935
933
931
932
931
933
933
935
935
937
938
937
937
934
932
931
932
931
933
934
935
938
939
938
938
937
937
936
935
936
936
938
936
933
930
928
925
925
923
921
923
924
926
930
929
933
932
931
930
931
931
931
933
934
936
938
939
938
939
939
938
935
933
934
934
933
934
935
938
939
938
939
939
939
939
939
940
933
925
910
892
877
864
860
862
877
895
920
941
961
969
967
959
948
936
927
923
924
925
931
931
934
935
935
938
939
938
938
940
940
938
936
938
937
937
937
939
940
940
940
936
937
935
934
934
934
936
936
940
940
938
937
937
936
933
933
932
932
932
935
936
938
935
935
935
932
931
931
930
929
931
933
931
933
932
929
929
927
926
925
925
925
928
928
928
930
927
926
927
922
923
920
922
921
920
922
924
925
925
922
922
922
918
915
917
918
916
917
921
920
921
921
921
919
918
917
919
919
923
923
926
927
927
928
930
926
926
926
927
928
931
934
933
935
937
933
934
932
931
929
929
930
933
933
936
936
937
937
935
932
932
931
932
932
933
937
936
936
939
938
937
935
934
933
935
934
935
935
938
938
938
935
937
937
934
937
931
933
937
937
938
939
939
940
940
940
939
939
937
939
939
939
939
939
936
932
929
927
926
926
925
926
929
928
930
935
933
933
932
934
934
934
935
938
938
936
939
941
941
938
940
937
935
936
936
935
934
938
938
940
941
942
943
941
941
936
931
925
911
898
883
872
868
873
886
903
924
943
957
963
963
955
944
937
929
926
926
928
928
930
931
932
931
933
936
937
937
938
937
935
931
933
931
934
935
937
936
938
938
937
936
936
936
933
931
935
934
936
938
940
936
934
934
933
931
931
930
931
933
934
933
932
934
932
931
931
930
927
926
927
928
931
929
930
927
928
929
926
925
922
921
923
924
927
927
928
927
928
925
923
924
922
922
923
922
923
922
924
925
922
922
920
918
915
916
918
917
917
921
921
922
920
921
922
920
919
919
923
925
928
929
930
933
932
931
931
929
928
932
931
934
934
935
937
938
938
936
934
933
932
933
934
936
934
936
938
938
937
936
935
935
936
932
934
935
937
937
937
939
937
935
935
934
934
933
936
936
936
939
939
938
939
940
936
935
934
933
935
935
938
938
940
941
939
940
940
938
938
937
941
941
943
942
943
940
936
936
933
929
926
925
924
927
929
932
934
932
931
933
931
930
929
930
934
935
937
937
939
941
937
937
936
935
935
933
935
936
937
938
939
941
936
937
937
936
935
939
939
940
937
930
920
907
889
880
871
873
882
892
912
930
949
962
964
961
948
940
929
924
922
923
927
931
934
936
937
938
937
936
934
935
933
931
933
935
938
938
939
939
938
936
936
935
933
934
933
934
936
938
939
940
939
938
933
933
932
932
930
932
934
935
934
934
932
934
929
929
929
927
929
927
929
931
932
930
931
930
930
925
926
924
926
926
925
928
928
930
926
926
926
923
920
920
920
924
924
924
926
927
924
925
923
920
918
917
917
920
919
921
921
921
918
919
919
915
913
914
916
917
918
919
921
922
921
922
923
921
920
920
922
923
925
926
930
931
929
931
929
927
926
926
927
928
930
931
930
931
931
930
930
929
926
928
929
930
932
932
933
931
933
933
933
931
928
929
929
932
931
934
936
936
933
934
933
931
931
930
932
931
935
933
932
935
933
931
931
931
930
931
932
933
934
936
939
939
938
939
937
938
936
934
932
929
926
929
927
926
925
928
924
926
923
923
925
924
928
928
931
932
936
935
932
932
930
931
931
933
934
936
935
938
935
936
933
932
931
932
932
933
933
936
936
940
941
945
941
934
927
918
906
895
881
876
871
873
882
892
906
925
939
945
948
941
934
924
919
920
922
924
925
927
927
928
930
928
932
933
934
937
935
936
935
931
930
930
930
930
933
934
934
937
935
934
932
931
930
929
931
930
932
933
934
934
932
931
930
929
928
927
929
926
928
930
932
932
930
931
928
929
927
925
923
925
927
926
927
929
927
925
923
924
920
921
923
922
922
923
925
925
926
924
923
921
919
919
917
917
921
922
919
922
918
916
914
913
908
911
909
911
914
916
915
916
916
917
913
914
914
914
917
919
920
923
925
925
923
924
923
924
921
922
924
924
925
928
928
929
928
927
926
926
925
924
924
924
927
927
929
931
929
929
927
927
926
926
925
927
927
930
931
932
929
930
930
927
927
927
926
927
930
930
930
932
931
931
928
929
927
927
929
928
930
932
931
933
933
935
932
932
931
932
933
935
935
937
935
932
928
926
919
919
915
915
918
919
923
924
925
925
924
923
923
924
924
925
927
930
931
932
934
935
936
933
935
930
930
929
929
929
929
931
933
934
932
933
934
935
936
934
929
922
911
896
883
871
861
860
864
876
891
914
934
947
955
949
941
930
921
916
917
918
921
923
926
925
928
932
933
933
934
933
928
929
929
927
928
929
931
933
934
935
935
933
933
931
931
931
932
932
933
933
933
934
932
933
930
929
928
927
928
927
928
928
930
931
929
929
928
926
924
923
925
926
927
927
927
929
928
926
925
923
923
919
922
922
922
922
925
926
921
923
920
921
919
918
919
918
920
921
921
924
922
921
921
914
913
912
914
911
914
915
913
916
914
917
911
914
911
910
911
911
915
917
920
922
921
922
919
919
920
920
920
921
923
926
927
930
928
929
929
925
925
923
925
925
927
929
930
932
930
930
929
927
926
923
924
927
927
929
931
931
932
930
929
928
926
924
925
926
928
928
930
933
931
928
929
926
926
925
927
928
930
930
932
933
932
932
933
929
929
928
930
933
933
933
934
931
926
924
920
919
916
915
915
918
920
920
921
925
925
925
925
926
926
926
930
930
933
932
932
935
934
933
931
930
929
926
928
929
930
930
932
931
933
935
936
936
932
922
912
898
882
867
859
856
862
872
891
910
929
946
953
950
941
930
923
920
916
920
921
924
927
926
924
926
926
926
931
933
932
931
932
931
929
927
928
928
930
929
928
932
931
933
931
929
927
928
927
927
928
928
929
932
932
930
929
926
926
925
922
922
925
927
928
928
929
927
925
923
921
921
922
921
923
923
926
924
926
924
923
920
919
916
918
916
917
918
920
922
920
921
917
917
915
914
914
913
915
915
916
915
915
914
912
909
908
909
908
906
909
910
911
913
914
911
913
913
911
911
912
915
915
918
920
921
920
923
923
920
919
921
921
923
923
926
926
928
928
927
928
927
922
924
923
926
925
927
928
930
928
930
927
927
926
925
925
927
927
928
929
931
931
929
929
930
928
925
927
928
929
929
930
932
932
931
931
930
928
926
926
926
927
930
930
931
933
933
932
931
929
930
931
932
934
932
931
929
926
923
920
921
918
917
917
921
923
923
926
926
928
925
928
924
924
927
927
930
931
930
934
932
934
935
932
931
929
929
929
929
931
932
933
934
934
933
935
935
930
923
913
902
886
873
862
861
865
881
899
922
941
954
960
954
945
934
925
921
922
922
925
926
927
926
926
930
928
930
933
933
934
932
931
933
931
931
927
929
929
933
932
933
934
933
931
931
930
927
925
926
930
929
930
929
929
926
927
928
926
923
925
923
925
926
927
927
928
927
925
925
920
918
922
922
921
923
921
925
925
922
922
919
916
915
915
916
915
917
917
918
918
918
917
915
914
911
910
911
914
913
913
915
915
912
913
911
909
907
907
908
909
912
914
914
916
919
920
917
916
916
917
918
919
920
922
923
923
923
923
921
921
924
924
924
923
926
925
926
929
929
926
927
926
925
925
926
926
928
931
932
929
930
927
928
926
927
926
927
927
927
926
931
929
929
930
928
927
927
925
925
927
929
929
933
932
931
931
928
928
926
925
930
932
931
935
936
937
937
939
935
932
929
927
925
924
923
923
925
925
924
924
924
921
921
924
924
923
928
928
929
933
933
933
932
931
930
930
930
931
933
934
937
935
934
933
931
929
929
929
931
930
932
936
937
938
936
936
930
921
911
894
882
871
866
868
878
892
911
928
944
954
959
955
944
935
926
921
920
922
921
926
927
928
926
927
925
928
927
931
934
932
930
930
928
927
925
924
925
925
927
930
931
932
929
929
927
927
926
924
926
927
926
926
927
928
927
926
924
923
920
921
920
921
924
924
925
925
925
924
919
919
918
918
917
920
921
920
924
921
919
920
919
917
915
915
915
917
918
917
917
919
918
919
917
912
912
910
910
910
911
912
913
911
909
909
910
907
908
907
909
908
910
913
913
916
915
916
916
915
913
913
915
916
919
922
924
924
924
925
923
921
920
921
922
921
925
926
929
930
930
926
925
923
922
922
921
923
926
927
929
930
930
928
925
925
923
925
925
927
926
928
929
931
931
929
926
925
926
923
926
927
927
928
930
931
929
928
927
925
925
925
926
929
930
931
935
935
934
933
930
927
922
919
917
918
917
919
921
921
923
922
921
917
918
918
919
920
923
926
929
931
930
930
928
927
925
923
925
925
929
929
928
930
930
930
927
928
925
924
926
931
936
936
934
929
918
905
890
877
866
864
869
878
895
911
929
944
950
948
939
928
917
911
913
916
920
926
927
929
929
929
927
927
925
925
927
927
929
930
929
933
931
932
931
929
926
925
927
926
928
930
931
930
930
929
928
926
926
923
924
925
927
926
929
928
927
927
928
926
925
922
923
923
926
925
926
927
926
925
923
921
918
922
921
919
921
922
923
925
923
921
920
919
917
915
916
916
918
920
922
921
920
919
917
917
915
915
913
915
916
914
915
915
913
912
912
910
907
907
909
908
910
912
912
916
914
913
913
912
913
914
915
915
919
921
923
923
922
923
923
922
922
922
923
925
924
927
929
928
928
928
925
924
923
923
923
925
927
927
929
929
927
929
927
926
924
923
925
926
926
928
929
932
929
928
926
927
925
925
927
925
929
930
931
932
931
933
930
929
926
927
928
928
932
933
935
937
934
935
935
933
927
925
923
923
921
922
923
925
921
922
923
923
916
917
921
920
923
927
929
932
931
932
931
929
928
927
926
927
931
932
932
933
932
932
928
930
926
926
928
928
932
935
939
939
935
931
919
907
891
875
864
861
862
868
885
904
922
939
948
947
941
930
919
915
914
915
920
924
926
929
928
924
923
922
923
927
929
929
932
931
931
931
929
926
925
925
928
926
930
929
932
931
932
931
930
929
925
924
927
927
928
930
930
930
931
930
928
926
923
924
925
926
926
926
928
928
927
926
925
923
920
921
920
923
925
924
924
928
927
925
922
922
918
918
919
920
919
919
922
924
920
920
920
918
913
915
918
916
917
918
917
915
915
916
914
912
909
907
908
909
910
911
911
913
914
911
910
910
910
910
913
913
916
917
920
920
920
921
921
920
918
916
919
921
921
922
923
928
926
927
924
923
921
922
920
922
923
925
927
927
925
927
927
924
922
921
920
921
925
926
928
926
927
926
926
923
921
923
922
923
926
926
926
928
928
928
927
924
924
924
924
926
927
927
926
930
929
928
929
927
926
926
926
928
929
931
928
930
926
922
919
917
913
913
913
915
918
917
919
920
920
918
921
921
921
921
923
925
927
930
929
928
931
929
927
927
927
926
926
927
929
929
931
931
931
929
930
931
931
932
930
925
916
906
891
876
864
858
860
868
887
911
934
947
950
943
933
922
915
915
914
919
920
922
923
923
924
925
928
931
932
930
929
927
924
925
925
927
927
927
929
928
930
929
930
926
923
925
924
927
926
927
929
930
928
928
927
925
921
923
922
923
925
926
925
927
926
925
925
924
921
919
920
920
921
922
923
923
924
922
921
919
917
917
916
917
916
919
919
921
920
921
918
916
913
911
912
912
913
915
916
915
914
912
910
908
907
906
906
908
909
908
910
909
912
911
912
911
907
907
908
911
913
916
917
921
921
920
918
918
916
915
917
919
920
920
922
921
922
922
921
920
919
918
918
920
921
923
923
924
924
923
921
920
918
917
916
919
921
919
924
924
924
922
922
920
919
918
917
920
920
923
925
924
925
923
923
921
920
918
919
921
921
923
924
927
928
928
927
926
926
923
921
919
919
918
916
917
915
914
914
914
912
914
912
914
916
915
919
920
920
921
922
921
922
922
920
921
922
925
927
926
927
926
924
922
922
921
921
921
923
926
928
931
933
932
927
918
906
888
874
858
850
850
860
875
894
915
932
947
947
941
930
918
915
910
911
915
918
922
920
922
917
918
919
920
920
923
925
927
926
924
924
924
920
922
921
920
922
924
926
927
923
925
920
921
919
919
918
918
922
922
922
923
922
922
921
920
919
917
918
916
919
918
920
921
920
920
919
917
915
914
914
915
916
916
918
918
917
914
914
912
910
910
909
910
912
913
913
915
913
913
911
909
908
907
907
906
908
907
907
910
906
906
905
901
900
897
899
901
902
903
904
907
908
907
905
907
907
907
908
908
910
912
914
915
915
917
915
915
914
915
913
914
918
920
920
921
922
923
921
918
918
916
918
919
921
921
923
925
923
923
922
921
920
919
918
920
921
923
926
927
927
924
924
925
921
922
920
922
923
924
926
927
925
926
924
923
921
920
922
924
923
929
928
929
928
928
928
925
921
918
916
916
915
913
919
917
920
918
916
917
916
916
916
917
918
923
926
928
927
927
926
925
925
924
923
923
925
926
927
928
927
929
926
924
923
924
925
927
931
929
929
922
911
895
876
858
848
845
856
875
901
924
945
958
960
952
938
926
916
909
910
912
919
921
927
928
925
927
925
925
921
920
922
925
923
925
928
927
927
927
926
926
923
922
923
925
924
925
926
927
927
926
925
925
922
920
922
920
923
924
924
924
927
925
923
922
918
917
917
919
920
923
919
921
920
920
918
916
917
915
914
916
915
919
919
920
918
916
917
913
912
911
913
912
912
915
914
915
914
914
913
909
908
906
906
907
904
910
910
910
910
909
907
905
903
902
906
905
907
911
913
915
914
915
915
916
913
914
916
915
917
920
922
922
924
922
923
923
919
920
920
923
923
926
926
928
924
923
924
922
923
920
919
921
923
925
925
927
927
926
924
923
923
920
919
923
922
925
927
927
928
927
927
924
922
924
924
924
924
926
925
927
928
927
930
929
925
926
926
928
929
930
931
933
929
927
922
922
919
915
914
917
919
920
922
922
925
923
924
920
922
920
922
926
924
923
925
930
928
927
929
928
926
927
926
928
926
928
931
930
931
932
929
929
927
927
927
930
931
930
928
920
907
890
876
863
859
863
872
892
913
932
949
961
962
955
943
930
921
915
912
915
919
924
926
928
930
927
927
926
924
925
924
924
926
928
928
931
930
929
930
929
926
925
925
928
925
927
929
929
930
928
927
926
924
923
923
923
925
926
928
927
929
927
927
925
923
921
920
920
921
923
924
925
924
924
922
919
919
915
916
919
917
920
919
921
921
916
916
916
915
912
913
912
914
913
915
917
915
915
914
912
910
907
907
910
908
911
910
910
911
909
909
907
905
905
906
908
907
910
912
912
914
912
915
911
911
913
911
916
917
919
919
923
921
922
921
921
920
919
918
920
922
923
924
925
927
925
924
923
923
919
920
923
921
923
923
926
928
925
926
924
922
919
921
922
925
925
926
927
927
927
926
927
923
922
922
923
924
926
926
929
930
930
930
927
926
923
922
925
928
930
933
935
935
933
935
934
931
926
927
923
923
922
922
924
922
922
920
922
919
920
918
920
920
922
924
924
925
929
929
927
925
925
923
927
926
927
931
931
931
929
931
925
926
925
924
926
927
926
931
931
935
935
934
929
921
908
895
881
871
869
869
880
894
907
925
942
948
948
940
932
922
916
916
918
920
924
927
927
925
922
922
924
924
929
929
930
931
929
929
927
926
923
924
923
927
926
928
929
930
928
928
926
923
923
922
923
924
925
925
927
926
925
924
923
921
920
920
920
920
921
923
921
922
922
922
920
919
916
914
917
917
916
918
920
921
918
917
916
913
912
912
912
913
913
913
915
915
915
914
912
911
909
908
908
908
909
909
910
910
908
909
905
904
905
902
901
906
906
908
909
911
910
911
910
910
909
910
913
911
913
916
919
921
919
918
918
916
914
916
918
920
920
920
922
920
921
921
921
919
916
917
917
919
920
921
923
924
923
922
921
921
920
920
920
918
919
923
923
923
925
924
923
921
922
917
920
919
922
924
926
925
923
925
923
923
921
920
923
923
926
928
930
931
927
927
922
918
916
913
914
911
912
911
916
916
918
916
916
915
913
911
915
916
918
922
925
926
925
923
924
923
920
918
921
920
923
922
926
925
924
925
923
922
921
919
923
927
929
930
927
922
909
897
882
869
861
859
860
872
888
901
922
936
943
943
935
922
911
906
906
908
913
917
920
923
922
921
920
918
917
917
919
919
920
923
922
925
924
924
924
922
920
919
921
921
923
921
921
923
924
922
922
920
919
918
917
919
920
920
922
922
921
922
919
917
915
914
915
914
916
920
920
920
919
918
915
914
914
914
913
914
916
915
917
916
916
916
913
910
909
907
908
910
911
912
913
917
914
913
911
909
908
908
907
906
908
907
908
910
909
906
905
902
901
901
902
901
902
905
905
907
907
905
903
904
901
902
904
907
909
910
915
914
915
915
916
914
913
913
914
916
916
918
919
920
919
922
917
917
917
914
915
917
918
918
922
921
923
920
920
918
915
915
918
916
920
921
922
923
921
923
920
916
918
919
918
918
918
920
920
921
922
921
921
918
917
916
917
919
921
923
927
928
928
927
924
918
916
911
910
910
909
909
912
914
914
913
911
913
911
909
912
913
918
919
923
924
925
924
923
921
920
919
919
918
921
921
923
923
924
923
920
919
921
921
923
926
928
926
921
906
893
876
860
850
844
853
867
887
907
929
944
951
946
933
920
908
905
904
907
912
916
920
921
921
922
923
920
917
918
917
919
916
921
924
924
922
922
922
920
921
919
918
918
917
919
922
921
921
920
922
918
917
916
914
916
916
918
917
920
921
919
918
917
916
914
912
912
911
914
915
916
917
914
915
912
909
909
908
909
912
912
911
912
915
915
913
911
909
907
909
905
908
908
909
910
911
909
910
908
905
903
899
902
902
902
905
905
906
903
901
902
899
899
898
901
902
903
906
907
908
911
910
910
908
909
908
909
910
911
912
915
916
917
917
915
915
913
913
912
913
915
916
919
920
918
920
917
916
916
912
915
914
917
917
919
921
920
919
918
917
916
914
914
916
916
920
920
921
921
922
918
921
917
916
917
919
919
920
920
921
920
920
921
920
920
919
921
922
923
924
926
926
924
918
916
911
908
907
907
906
910
912
914
915
914
915
913
914
912
914
915
917
920
921
924
926
924
922
922
919
916
918
919
917
919
921
924
924
922
925
926
925
927
926
921
915
908
894
881
869
856
851
852
863
879
897
919
938
947
946
940
930
919
911
908
909
912
914
918
920
920
922
922
925
924
924
922
921
920
921
921
922
921
923
924
925
924
925
923
922
920
920
920
923
923
922
925
925
925
923
923
923
918
919
917
917
920
924
924
925
924
922
921
919
917
917
914
918
918
918
920
920
919
919
916
917
915
914
914
911
913
913
918
918
917
916
915
912
913
912
911
913
913
913
915
913
912
911
910
909
905
906
906
905
906
907
909
909
909
909
906
907
904
905
905
907
909
911
913
913
914
913
915
912
913
913
911
914
915
918
920
922
922
920
922
919
917
917
917
919
919
920
923
923
924
923
923
920
918
919
920
918
920
921
923
923
924
924
922
922
919
919
919
922
922
923
927
926
925
925
923
922
922
919
918
921
922
925
923
925
925
925
925
926
924
926
926
926
927
930
929
929
925
922
920
917
914
912
912
912
915
918
919
918
919
919
917
917
918
918
920
922
924
927
928
931
930
929
928
928
927
927
925
926
927
927
929
932
932
932
930
931
929
933
932
932
927
919
906
890
871
857
852
853
862
884
905
929
947
956
958
946
935
924
916
913
914
918
923
926
928
927
929
929
929
930
931
929
928
926
925
928
925
929
932
932
932
932
932
932
929
929
927
926
928
930
933
934
934
930
929
928
926
925
923
926
926
926
929
929
929
926
929
926
924
922
921
922
923
923
922
927
924
926
923
921
920
920
916
918
921
921
923
924
925
920
920
918
917
915
916
916
915
916
918
919
919
916
916
911
909
906
909
908
909
911
914
914
912
914
911
912
911
911
911
912
914
915
919
923
924
922
920
921
919
919
919
920
925
927
929
929
927
928
928
926
926
923
924
924
926
929
928
931
930
929
927
926
925
924
924
927
927
929
931
933
933
930
931
930
927
925
927
929
928
929
932
935
932
933
932
931
928
928
926
928
928
931
932
934
935
935
938
935
934
933
931
931
928
929
928
927
926
924
922
921
922
922
922
924
923
926
928
931
931
931
932
932
931
931
931
931
932
934
933
936
937
934
933
933
929
931
930
931
931
933
933
934
936
935
937
935
935
932
928
922
911
896
883
871
861
861
872
884
902
919
940
953
963
962
956
947
938
927
923
919
921
922
926
929
929
930
932
931
931
934
934
931
930
927
929
928
931
934
933
937
936
936
933
932
930
931
930
931
929
933
932
936
935
932
933
931
929
929
926
929
929
931
932
931
933
932
931
929
927
925
924
927
925
926
929
930
929
927
926
925
921
922
920
921
920
923
924
925
925
923
922
920
917
917
916
919
917
920
919
921
920
918
918
914
914
908
909
912
910
911
912
914
913
911
915
912
912
913
914
914
917
919
922
922
923
923
924
923
921
920
921
921
924
925
928
929
928
931
931
931
928
928
931
930
929
932
932
933
934
934
932
930
930
928
929
929
929
928
931
935
934
935
936
933
929
929
930
930
931
934
934
935
936
935
934
933
934
930
931
931
934
935
935
934
937
935
936
936
936
933
935
937
938
938
938
937
936
932
931
928
925
922
922
923
928
929
928
931
932
931
930
930
929
927
928
932
931
932
936
938
936
936
934
933
931
931
930
931
933
936
934
936
939
937
936
936
934
935
935
937
937
930
921
910
895
881
872
867
874
884
900
921
941
956
965
969
963
950
940
930
921
919
921
923
929
931
933
934
934
933
934
933
933
930
931
932
932
933
934
933
936
934
933
934
931
930
931
929
932
933
934
934
934
934
935
934
932
928
929
929
927
932
932
931
933
931
929
929
928
928
926
926
927
927
928
928
930
927
926
925
923
920
923
922
921
923
924
926
928
924
924
922
924
919
919
921
921
921
922
924
925
922
920
920
918
914
914
915
914
916
915
917
916
915
915
912
911
911
909
913
912
916
918
920
921
920
922
921
921
918
919
919
922
924
925
929
931
929
929
929
928
925
925
925
926
927
929
933
931
931
930
927
930
927
926
927
928
928
931
930
932
932
929
929
928
927
927
927
929
930
932
932
933
931
932
931
930
929
926
928
929
928
931
933
934
933
933
932
930
932
931
935
934
935
940
939
939
937
936
932
926
924
920
920
921
924
924
928
928
926
927
922
922
922
924
926
928
931
933
936
936
933
933
935
930
930
929
929
929
931
932
934
934
932
935
933
931
930
931
935
938
939
936
926
915
900
885
873
870
877
885
904
924
943
952
954
945
931
924
917
915
918
920
927
927
927
932
932
932
933
932
930
928
928
927
928
929
930
933
932
933
932
933
932
930
927
927
928
928
929
930
932
932
932
932
929
926
927
925
925
926
927
928
930
929
927
926
926
925
923
922
922
925
924
926
927
925
923
926
922
922
919
916
918
919
918
922
921
921
922
921
918
916
913
914
918
919
919
918
920
919
917
915
915
913
911
909
910
909
911
911
911
912
911
914
911
909
909
910
910
914
911
915
918
919
921
920
917
918
918
917
918
919
921
925
927
926
926
927
925
925
921
922
922
925
924
926
930
928
927
927
926
925
925
922
924
924
924
926
929
929
930
929
928
925
923
921
923
923
926
927
928
927
927
927
926
927
925
923
923
924
926
928
929
929
929
930
929
928
928
930
929
931
933
932
934
932
927
925
919
919
914
913
915
917
919
922
923
921
920
920
920
921
922
922
925
925
929
930
928
932
931
929
928
925
926
925
928
927
930
932
928
932
932
930
932
932
934
932
932
928
918
906
893
878
867
862
866
873
888
907
923
941
952
950
943
930
920
916
913
914
916
920
925
926
926
927
927
930
930
930
928
927
924
924
926
927
927
930
933
932
930
931
928
927
925
923
924
926
928
928
929
930
929
928
927
925
923
924
923
924
924
927
927
928
927
927
925
921
923
920
921
920
919
923
923
923
924
924
924
921
920
918
917
920
920
921
921
921
920
922
920
918
915
913
914
914
915
915
916
916
915
914
913
910
908
906
906
907
909
910
912
914
915
914
912
911
912
910
910
911
914
916
917
919
921
920
919
917
917
918
916
919
922
922
926
924
925
925
924
922
922
922
922
924
924
926
925
926
927
926
926
924
921
920
922
922
924
924
926
927
927
926
927
923
921
921
922
924
923
924
927
927
928
926
923
923
922
921
922
923
926
925
923
927
928
927
926
927
927
925
925
927
930
928
928
927
923
922
917
914
914
910
912
915
916
916
919
920
919
920
920
921
920
921
921
923
923
925
926
927
927
926
926
923
921
924
922
924
926
924
925
929
927
928
929
927
927
927
924
917
906
891
880
866
856
855
864
875
894
915
934
946
947
943
935
924
917
912
912
914
916
920
920
922
921
924
925
927
927
927
926
925
925
921
921
923
923
926
925
927
927
928
926
924
923
922
923
923
923
925
925
926
924
924
925
923
920
921
921
920
921
922
922
923
923
923
922
920
918
918
918
917
918
917
921
921
920
921
917
916
915
918
915
915
915
917
918
917
918
916
914
912
913
911
911
912
911
913
915
914
914
913
910
909
905
903
905
905
904
905
909
910
909
907
907
907
905
904
902
906
908
909
911
915
916
915
916
914
914
912
913
914
915
918
917
918
920
917
920
917
917
916
916
917
918
919
920
922
920
921
921
919
917
916
917
916
918
921
921
924
921
923
920
919
918
918
916
916
917
918
917
922
920
921
921
919
917
915
917
919
919
921
922
922
922
922
921
922
920
919
917
920
923
923
926
927
926
925
921
917
913
912
908
909
908
911
913
916
916
916
914
912
913
914
914
917
918
921
923
925
926
924
924
922
920
921
919
922
922
924
925
925
926
924
924
924
922
920
920
922
926
929
926
921
914
900
884
866
852
847
848
860
878
900
922
940
952
951
942
929
917
908
903
908
910
916
921
922
922
920
921
920
919
918
918
922
920
922
924
924
924
922
921
921
921
919
918
920
921
922
923
923
924
920
923
921
917
917
917
918
919
921
920
922
920
920
920
919
915
915
916
916
916
919
919
919
917
917
916
916
914
913
912
912
912
913
915
917
917
916
916
913
911
909
909
910
909
910
911
913
914
911
911
908
908
905
905
904
905
907
905
906
905
902
904
902
900
901
899
901
903
904
907
907
907
909
907
908
905
904
907
907
910
912
913
914
917
915
915
915
914
913
911
913
915
917
919
922
921
920
919
918
917
915
915
915
918
919
919
922
923
922
921
919
918
918
917
918
920
921
920
925
923
923
920
918
920
916
915
919
919
917
921
923
922
921
921
921
919
919
920
920
920
923
923
923
923
922
923
922
924
922
920
925
926
925
927
927
923
920
917
914
911
907
909
909
911
914
916
917
917
917
917
915
917
915
915
919
921
922
922
925
926
922
923
922
922
918
920
919
922
921
924
926
926
923
924
922
922
923
923
926
924
920
910
897
882
865
853
851
855
869
889
912
933
950
958
957
948
932
922
913
909
912
912
917
920
923
923
924
923
923
925
924
922
919
921
922
921
924
924
926
927
926
926
926
922
922
920
920
920
924
922
924
925
922
922
921
917
917
919
919
920
921
923
923
922
920
920
917
916
916
914
914
915
916
918
918
918
918
916
915
913
910
909
909
910
912
914
913
914
912
913
912
908
907
908
908
908
909
908
911
913
910
908
906
903
902
901
900
902
903
903
904
906
906
906
906
904
904
905
905
906
910
911
913
914
914
917
914
915
915
916
914
916
919
920
923
923
922
922
921
920
917
918
919
920
921
924
924
925
925
923
924
923
922
919
921
923
923
925
926
927
925
925
925
923
923
919
922
923
924
924
929
929
927
928
925
923
925
922
922
925
927
927
926
931
930
928
928
927
928
927
927
926
929
932
931
930
925
925
921
917
915
913
915
915
918
922
921
921
920
919
919
918
918
920
923
924
927
928
929
928
927
926
926
925
924
921
924
923
925
925
928
926
925
927
925
926
925
924
926
921
917
908
896
882
870
863
864
872
885
900
919
937
951
955
953
943
931
921
913
910
910
914
917
922
921
925
928
925
925
926
924
921
920
920
921
923
923
925
926
926
926
926
925
922
923
923
921
923
924
925
926
927
925
924
923
923
921
919
920
921
921
924
924
923
923
921
922
920
918
917
920
919
922
922
919
921
921
918
920
919
916
915
915
915
916
916
915
918
915
916
915
913
912
911
911
911
913
915
916
914
913
912
911
910
909
906
907
909
909
910
911
912
912
910
909
910
909
908
910
912
914
915
917
917
917
919
918
917
918
914
918
920
922
922
925
927
926
926
923
923
921
919
924
921
926
926
926
928
925
925
924
923
922
921
921
922
925
925
927
926
927
927
926
925
922
923
921
925
925
927
928
931
930
929
928
927
924
924
925
924
928
930
933
934
932
934
932
934
932
930
928
926
926
923
922
922
921
922
920
919
920
917
918
919
921
924
926
930
928
931
929
929
927
926
928
929
929
932
934
934
933
932
928
928
927
926
928
929
930
932
936
938
936
933
924
913
900
886
875
871
875
880
892
909
924
938
947
947
939
930
923
917
917
918
923
928
928
929
927
926
923
923
926
927
928
931
931
933
930
930
929
929
926
926
927
928
928
931
931
933
930
930
928
926
924
923
924
925
925
926
929
928
929
929
925
924
924
921
920
922
923
924
925
926
927
925
925
923
922
919
921
921
921
923
924
925
923
920
920
918
918
916
916
916
919
920
921
923
924
920
919
920
917
915
916
916
916
918
920
919
917
919
914
913
911
910
912
910
913
912
916
916
917
917
916
914
913
914
914
917
918
919
923
924
925
925
923
921
923
921
923
922
923
925
926
928
926
928
927
925
922
924
925
924
926
927
929
929
929
930
927
926
925
924
925
925
928
930
930
931
930
930
927
925
926
926
925
925
928
928
929
932
931
932
929
927
924
924
927
923
926
930
933
934
934
934
930
930
928
926
924
921
919
920
921
921
920
921
919
919
917
917
918
919
920
924
926
928
928
930
930
928
924
925
925
926
929
929
931
932
928
930
926
928
926
926
924
930
930
933
933
927
917
903
887
876
868
866
872
883
898
916
934
944
945
941
931
921
914
910
913
917
922
926
927
930
928
926
927
924
926
922
924
926
929
928
930
932
931
930
930
925
926
924
926
925
925
927
929
929
929
930
929
925
923
922
924
924
926
929
928
929
929
925
926
925
923
920
921
921
921
924
923
925
924
924
923
921
919
919
918
919
919
921
925
925
923
923
921
921
918
918
917
918
919
916
921
921
919
919
917
916
913
912
911
911
913
914
914
917
915
916
912
910
909
909
908
912
913
914
915
918
918
918
920
916
916
917
916
917
920
922
922
923
926
923
925
923
921
921
920
922
925
925
927
928
929
927
925
924
924
922
924
922
925
926
929
929
929
927
929
924
926
924
922
925
926
928
926
930
929
928
926
926
925
923
925
924
925
927
929
931
930
929
929
928
925
922
925
925
928
929
932
935
934
934
933
930
928
926
923
922
922
921
921
922
921
922
922
920
920
920
918
920
921
925
925
928
927
928
928
927
925
927
927
926
929
929
928
932
930
930
930
930
926
925
925
928
929
932
932
933
928
921
909
894
879
870
865
869
880
893
911
928
939
947
944
936
924
918
914
914
915
919
924
928
929
927
927
925
924
924
925
925
927
928
929
933
933
931
930
929
930
926
925
927
925
929
931
930
930
931
928
927
928
925
924
926
924
926
929
928
930
925
927
925
923
924
923
924
924
927
926
926
928
926
927
925
922
921
920
920
922
923
927
927
924
924
922
921
920
918
918
919
919
921
920
922
923
922
920
918
914
915
912
915
915
915
917
919
918
915
916
916
914
911
911
913
915
916
917
918
918
918
918
918
916
915
919
921
920
923
925
927
927
926
926
924
924
923
924
926
924
926
927
928
929
927
926
926
924
922
922
925
923
926
927
930
930
928
930
926
925
924
924
926
926
929
930
932
932
931
929
928
925
925
926
928
926
929
930
931
930
930
930
927
928
925
927
929
932
932
934
936
936
936
932
933
928
924
922
921
920
923
922
923
924
925
925
921
920
919
920
923
926
926
930
931
934
933
932
931
929
928
929
930
930
932
934
934
933
932
931
931
930
927
927
929
930
933
935
938
936
932
928
922
908
895
883
874
869
870
878
893
908
925
941
951
955
952
944
937
928
925
925
925
928
930
930
932
930
928
927
929
929
933
933
934
935
934
934
932
932
932
930
932
931
934
935
936
936
936
933
934
930
931
930
930
933
933
936
933
935
933
934
931
930
927
926
928
928
928
929
931
932
930
929
928
925
926
924
925
924
927
926
928
929
926
926
924
924
922
922
923
921
924
924
925
926
924
923
919
917
917
915
918
917
918
917
921
920
918
918
914
914
912
913
915
914
916
919
919
921
921
922
920
920
918
921
922
922
924
926
930
930
929
929
929
927
927
926
929
926
931
933
933
934
934
933
932
930
929
929
930
932
932
934
935
935
935
935
932
931
929
930
930
931
934
934
938
936
935
935
934
933
932
934
933
934
935
937
939
938
938
938
934
933
932
931
932
933
935
939
941
940
941
943
942
939
938
935
933
932
930
930
933
930
929
930
930
927
926
926
926
929
929
932
934
936
937
938
937
937
935
934
934
934
937
938
939
939
937
936
936
935
935
933
933
932
935
937
940
941
942
938
935
928
917
907
896
886
882
882
890
902
914
931
943
952
958
955
948
942
932
931
928
928
930
930
933
931
931
931
931
933
935
936
938
939
937
937
937
938
933
933
933
935
934
937
937
937
938
938
935
933
933
932
933
933
934
935
936
937
936
937
935
933
931
930
931
931
930
931
934
934
931
932
930
930
929
928
929
930
931
930
932
931
930
927
925
926
924
923
925
923
925
925
927
926
925
926
924
922
921
920
920
922
922
922
923
921
921
921
920
919
917
915
915
915
918
919
920
921
917
920
918
918
919
917
918
922
921
925
924
927
926
927
